Name:: Spectrum 8568;Timestamp:: 2025-Jul-02 16:11:23;Device:: Ossila Spectrometer (COM5);Colour:: (192: 29: 50);Integration Time (ms):: 150.0;Accumulation Number:: 1;Averaging Number:: 1;Delay Time:: 0;Trigger Mode:: Internal;Measurement Type:: Intensity;Comments:: 
Wavelength (nm),Intensity,Smoothed,Background,Reference
319.73,1494.0,0.0,0.0,0.0
320.26,1504.0,0.0,0.0,0.0
320.79,1561.0,0.0,0.0,0.0
321.32,1592.0,0.0,0.0,0.0
321.85,1485.0,0.0,0.0,0.0
322.38,1530.0,0.0,0.0,0.0
322.91,1560.0,0.0,0.0,0.0
323.44,1523.0,0.0,0.0,0.0
323.97,1554.0,0.0,0.0,0.0
324.5,1516.0,0.0,0.0,0.0
325.03,1549.0,0.0,0.0,0.0
325.56,1582.0,0.0,0.0,0.0
326.09,1546.0,0.0,0.0,0.0
326.62,1543.0,0.0,0.0,0.0
327.15,1578.0,0.0,0.0,0.0
327.68,1540.0,0.0,0.0,0.0
328.21,1597.0,0.0,0.0,0.0
328.74,1548.0,0.0,0.0,0.0
329.27,1579.0,0.0,0.0,0.0
329.8,1598.0,0.0,0.0,0.0
330.32,1560.0,0.0,0.0,0.0
330.85,1508.0,0.0,0.0,0.0
331.38,1492.0,0.0,0.0,0.0
331.91,1621.0,0.0,0.0,0.0
332.44,1557.0,0.0,0.0,0.0
332.97,1575.0,0.0,0.0,0.0
333.5,1590.0,0.0,0.0,0.0
334.03,1625.0,0.0,0.0,0.0
334.56,1591.0,0.0,0.0,0.0
335.09,1584.0,0.0,0.0,0.0
335.62,1575.0,0.0,0.0,0.0
336.15,1584.0,0.0,0.0,0.0
336.67,1553.0,0.0,0.0,0.0
337.2,1601.0,0.0,0.0,0.0
337.73,1562.0,0.0,0.0,0.0
338.26,1610.0,0.0,0.0,0.0
338.79,1543.0,0.0,0.0,0.0
339.32,1494.0,0.0,0.0,0.0
339.85,1516.0,0.0,0.0,0.0
340.38,1492.0,0.0,0.0,0.0
340.9,1510.0,0.0,0.0,0.0
341.43,1499.0,0.0,0.0,0.0
341.96,1590.0,0.0,0.0,0.0
342.49,1615.0,0.0,0.0,0.0
343.02,1556.0,0.0,0.0,0.0
343.55,1551.0,0.0,0.0,0.0
344.07,1570.0,0.0,0.0,0.0
344.6,1575.0,0.0,0.0,0.0
345.13,1592.0,0.0,0.0,0.0
345.66,1535.0,0.0,0.0,0.0
346.19,1601.0,0.0,0.0,0.0
346.71,1610.0,0.0,0.0,0.0
347.24,1580.0,0.0,0.0,0.0
347.77,1557.0,0.0,0.0,0.0
348.3,1562.0,0.0,0.0,0.0
348.83,1554.0,0.0,0.0,0.0
349.35,1559.0,0.0,0.0,0.0
349.88,1594.0,0.0,0.0,0.0
350.41,1584.0,0.0,0.0,0.0
350.94,1517.0,0.0,0.0,0.0
351.46,1565.0,0.0,0.0,0.0
351.99,1522.0,0.0,0.0,0.0
352.52,1526.0,0.0,0.0,0.0
353.05,1531.0,0.0,0.0,0.0
353.57,1580.0,0.0,0.0,0.0
354.1,1533.0,0.0,0.0,0.0
354.63,1545.0,0.0,0.0,0.0
355.16,1520.0,0.0,0.0,0.0
355.68,1525.0,0.0,0.0,0.0
356.21,1522.0,0.0,0.0,0.0
356.74,1550.0,0.0,0.0,0.0
357.26,1602.0,0.0,0.0,0.0
357.79,1548.0,0.0,0.0,0.0
358.32,1536.0,0.0,0.0,0.0
358.84,1590.0,0.0,0.0,0.0
359.37,1600.0,0.0,0.0,0.0
359.9,1585.0,0.0,0.0,0.0
360.42,1569.0,0.0,0.0,0.0
360.95,1531.0,0.0,0.0,0.0
361.48,1538.0,0.0,0.0,0.0
362.0,1544.0,0.0,0.0,0.0
362.53,1570.0,0.0,0.0,0.0
363.06,1562.0,0.0,0.0,0.0
363.58,1525.0,0.0,0.0,0.0
364.11,1546.0,0.0,0.0,0.0
364.64,1595.0,0.0,0.0,0.0
365.16,1566.0,0.0,0.0,0.0
365.69,1600.0,0.0,0.0,0.0
366.21,1560.0,0.0,0.0,0.0
366.74,1571.0,0.0,0.0,0.0
367.27,1572.0,0.0,0.0,0.0
367.79,1567.0,0.0,0.0,0.0
368.32,1537.0,0.0,0.0,0.0
368.84,1541.0,0.0,0.0,0.0
369.37,1556.0,0.0,0.0,0.0
369.9,1566.0,0.0,0.0,0.0
370.42,1513.0,0.0,0.0,0.0
370.95,1548.0,0.0,0.0,0.0
371.47,1632.0,0.0,0.0,0.0
372.0,1590.0,0.0,0.0,0.0
372.52,1544.0,0.0,0.0,0.0
373.05,1543.0,0.0,0.0,0.0
373.58,1546.0,0.0,0.0,0.0
374.1,1616.0,0.0,0.0,0.0
374.63,1565.0,0.0,0.0,0.0
375.15,1530.0,0.0,0.0,0.0
375.68,1575.0,0.0,0.0,0.0
376.2,1587.0,0.0,0.0,0.0
376.73,1566.0,0.0,0.0,0.0
377.25,1559.0,0.0,0.0,0.0
377.78,1509.0,0.0,0.0,0.0
378.3,1586.0,0.0,0.0,0.0
378.83,1635.0,0.0,0.0,0.0
379.35,1620.0,0.0,0.0,0.0
379.88,1606.0,0.0,0.0,0.0
380.4,1563.0,0.0,0.0,0.0
380.93,1540.0,0.0,0.0,0.0
381.45,1492.0,0.0,0.0,0.0
381.98,1574.0,0.0,0.0,0.0
382.5,1545.0,0.0,0.0,0.0
383.02,1502.0,0.0,0.0,0.0
383.55,1582.0,0.0,0.0,0.0
384.07,1606.0,0.0,0.0,0.0
384.6,1539.0,0.0,0.0,0.0
385.12,1502.0,0.0,0.0,0.0
385.65,1526.0,0.0,0.0,0.0
386.17,1553.0,0.0,0.0,0.0
386.7,1565.0,0.0,0.0,0.0
387.22,1543.0,0.0,0.0,0.0
387.74,1565.0,0.0,0.0,0.0
388.27,1566.0,0.0,0.0,0.0
388.79,1629.0,0.0,0.0,0.0
389.32,1597.0,0.0,0.0,0.0
389.84,1553.0,0.0,0.0,0.0
390.36,1548.0,0.0,0.0,0.0
390.89,1597.0,0.0,0.0,0.0
391.41,1594.0,0.0,0.0,0.0
391.93,1539.0,0.0,0.0,0.0
392.46,1530.0,0.0,0.0,0.0
392.98,1539.0,0.0,0.0,0.0
393.51,1556.0,0.0,0.0,0.0
394.03,1560.0,0.0,0.0,0.0
394.55,1542.0,0.0,0.0,0.0
395.08,1583.0,0.0,0.0,0.0
395.6,1633.0,0.0,0.0,0.0
396.12,1596.0,0.0,0.0,0.0
396.65,1581.0,0.0,0.0,0.0
397.17,1494.0,0.0,0.0,0.0
397.69,1564.0,0.0,0.0,0.0
398.21,1595.0,0.0,0.0,0.0
398.74,1559.0,0.0,0.0,0.0
399.26,1531.0,0.0,0.0,0.0
399.78,1588.0,0.0,0.0,0.0
400.31,1598.0,0.0,0.0,0.0
400.83,1551.0,0.0,0.0,0.0
401.35,1541.0,0.0,0.0,0.0
401.88,1581.0,0.0,0.0,0.0
402.4,1633.0,0.0,0.0,0.0
402.92,1584.0,0.0,0.0,0.0
403.44,1594.0,0.0,0.0,0.0
403.97,1520.0,0.0,0.0,0.0
404.49,1559.0,0.0,0.0,0.0
405.01,1565.0,0.0,0.0,0.0
405.53,1514.0,0.0,0.0,0.0
406.06,1536.0,0.0,0.0,0.0
406.58,1594.0,0.0,0.0,0.0
407.1,1637.0,0.0,0.0,0.0
407.62,1579.0,0.0,0.0,0.0
408.14,1588.0,0.0,0.0,0.0
408.67,1597.0,0.0,0.0,0.0
409.19,1624.0,0.0,0.0,0.0
409.71,1562.0,0.0,0.0,0.0
410.23,1552.0,0.0,0.0,0.0
410.75,1522.0,0.0,0.0,0.0
411.28,1526.0,0.0,0.0,0.0
411.8,1568.0,0.0,0.0,0.0
412.32,1570.0,0.0,0.0,0.0
412.84,1519.0,0.0,0.0,0.0
413.36,1522.0,0.0,0.0,0.0
413.88,1604.0,0.0,0.0,0.0
414.41,1586.0,0.0,0.0,0.0
414.93,1600.0,0.0,0.0,0.0
415.45,1561.0,0.0,0.0,0.0
415.97,1547.0,0.0,0.0,0.0
416.49,1538.0,0.0,0.0,0.0
417.01,1531.0,0.0,0.0,0.0
417.53,1547.0,0.0,0.0,0.0
418.05,1518.0,0.0,0.0,0.0
418.58,1572.0,0.0,0.0,0.0
419.1,1554.0,0.0,0.0,0.0
419.62,1506.0,0.0,0.0,0.0
420.14,1572.0,0.0,0.0,0.0
420.66,1561.0,0.0,0.0,0.0
421.18,1549.0,0.0,0.0,0.0
421.7,1562.0,0.0,0.0,0.0
422.22,1489.0,0.0,0.0,0.0
422.74,1506.0,0.0,0.0,0.0
423.26,1553.0,0.0,0.0,0.0
423.78,1527.0,0.0,0.0,0.0
424.3,1595.0,0.0,0.0,0.0
424.83,1563.0,0.0,0.0,0.0
425.35,1542.0,0.0,0.0,0.0
425.87,1568.0,0.0,0.0,0.0
426.39,1530.0,0.0,0.0,0.0
426.91,1568.0,0.0,0.0,0.0
427.43,1597.0,0.0,0.0,0.0
427.95,1594.0,0.0,0.0,0.0
428.47,1588.0,0.0,0.0,0.0
428.99,1593.0,0.0,0.0,0.0
429.51,1579.0,0.0,0.0,0.0
430.03,1559.0,0.0,0.0,0.0
430.55,1670.0,0.0,0.0,0.0
431.07,1545.0,0.0,0.0,0.0
431.59,1538.0,0.0,0.0,0.0
432.11,1610.0,0.0,0.0,0.0
432.63,1570.0,0.0,0.0,0.0
433.15,1525.0,0.0,0.0,0.0
433.67,1546.0,0.0,0.0,0.0
434.19,1576.0,0.0,0.0,0.0
434.71,1572.0,0.0,0.0,0.0
435.22,1546.0,0.0,0.0,0.0
435.74,1574.0,0.0,0.0,0.0
436.26,1534.0,0.0,0.0,0.0
436.78,1503.0,0.0,0.0,0.0
437.3,1535.0,0.0,0.0,0.0
437.82,1576.0,0.0,0.0,0.0
438.34,1554.0,0.0,0.0,0.0
438.86,1521.0,0.0,0.0,0.0
439.38,1572.0,0.0,0.0,0.0
439.9,1583.0,0.0,0.0,0.0
440.42,1563.0,0.0,0.0,0.0
440.94,1560.0,0.0,0.0,0.0
441.45,1553.0,0.0,0.0,0.0
441.97,1580.0,0.0,0.0,0.0
442.49,1580.0,0.0,0.0,0.0
443.01,1519.0,0.0,0.0,0.0
443.53,1501.0,0.0,0.0,0.0
444.05,1530.0,0.0,0.0,0.0
444.57,1577.0,0.0,0.0,0.0
445.09,1505.0,0.0,0.0,0.0
445.6,1533.0,0.0,0.0,0.0
446.12,1580.0,0.0,0.0,0.0
446.64,1561.0,0.0,0.0,0.0
447.16,1600.0,0.0,0.0,0.0
447.68,1571.0,0.0,0.0,0.0
448.2,1562.0,0.0,0.0,0.0
448.71,1588.0,0.0,0.0,0.0
449.23,1623.0,0.0,0.0,0.0
449.75,1522.0,0.0,0.0,0.0
450.27,1526.0,0.0,0.0,0.0
450.79,1498.0,0.0,0.0,0.0
451.3,1493.0,0.0,0.0,0.0
451.82,1551.0,0.0,0.0,0.0
452.34,1535.0,0.0,0.0,0.0
452.86,1589.0,0.0,0.0,0.0
453.37,1610.0,0.0,0.0,0.0
453.89,1577.0,0.0,0.0,0.0
454.41,1549.0,0.0,0.0,0.0
454.93,1518.0,0.0,0.0,0.0
455.44,1570.0,0.0,0.0,0.0
455.96,1558.0,0.0,0.0,0.0
456.48,1553.0,0.0,0.0,0.0
457.0,1546.0,0.0,0.0,0.0
457.51,1514.0,0.0,0.0,0.0
458.03,1550.0,0.0,0.0,0.0
458.55,1584.0,0.0,0.0,0.0
459.07,1547.0,0.0,0.0,0.0
459.58,1529.0,0.0,0.0,0.0
460.1,1526.0,0.0,0.0,0.0
460.62,1576.0,0.0,0.0,0.0
461.13,1551.0,0.0,0.0,0.0
461.65,1538.0,0.0,0.0,0.0
462.17,1546.0,0.0,0.0,0.0
462.68,1591.0,0.0,0.0,0.0
463.2,1567.0,0.0,0.0,0.0
463.72,1521.0,0.0,0.0,0.0
464.23,1509.0,0.0,0.0,0.0
464.75,1586.0,0.0,0.0,0.0
465.27,1589.0,0.0,0.0,0.0
465.78,1554.0,0.0,0.0,0.0
466.3,1572.0,0.0,0.0,0.0
466.82,1586.0,0.0,0.0,0.0
467.33,1571.0,0.0,0.0,0.0
467.85,1561.0,0.0,0.0,0.0
468.36,1554.0,0.0,0.0,0.0
468.88,1591.0,0.0,0.0,0.0
469.4,1591.0,0.0,0.0,0.0
469.91,1564.0,0.0,0.0,0.0
470.43,1601.0,0.0,0.0,0.0
470.95,1580.0,0.0,0.0,0.0
471.46,1550.0,0.0,0.0,0.0
471.98,1520.0,0.0,0.0,0.0
472.49,1518.0,0.0,0.0,0.0
473.01,1568.0,0.0,0.0,0.0
473.52,1543.0,0.0,0.0,0.0
474.04,1562.0,0.0,0.0,0.0
474.56,1561.0,0.0,0.0,0.0
475.07,1539.0,0.0,0.0,0.0
475.59,1597.0,0.0,0.0,0.0
476.1,1603.0,0.0,0.0,0.0
476.62,1609.0,0.0,0.0,0.0
477.13,1579.0,0.0,0.0,0.0
477.65,1512.0,0.0,0.0,0.0
478.16,1563.0,0.0,0.0,0.0
478.68,1590.0,0.0,0.0,0.0
479.19,1609.0,0.0,0.0,0.0
479.71,1592.0,0.0,0.0,0.0
480.22,1527.0,0.0,0.0,0.0
480.74,1543.0,0.0,0.0,0.0
481.25,1602.0,0.0,0.0,0.0
481.77,1597.0,0.0,0.0,0.0
482.28,1560.0,0.0,0.0,0.0
482.8,1543.0,0.0,0.0,0.0
483.31,1585.0,0.0,0.0,0.0
483.83,1543.0,0.0,0.0,0.0
484.34,1558.0,0.0,0.0,0.0
484.86,1571.0,0.0,0.0,0.0
485.37,1574.0,0.0,0.0,0.0
485.88,1630.0,0.0,0.0,0.0
486.4,1611.0,0.0,0.0,0.0
486.91,1548.0,0.0,0.0,0.0
487.43,1575.0,0.0,0.0,0.0
487.94,1540.0,0.0,0.0,0.0
488.46,1559.0,0.0,0.0,0.0
488.97,1585.0,0.0,0.0,0.0
489.48,1575.0,0.0,0.0,0.0
490.0,1499.0,0.0,0.0,0.0
490.51,1578.0,0.0,0.0,0.0
491.03,1529.0,0.0,0.0,0.0
491.54,1533.0,0.0,0.0,0.0
492.05,1601.0,0.0,0.0,0.0
492.57,1533.0,0.0,0.0,0.0
493.08,1617.0,0.0,0.0,0.0
493.59,1613.0,0.0,0.0,0.0
494.11,1569.0,0.0,0.0,0.0
494.62,1578.0,0.0,0.0,0.0
495.13,1596.0,0.0,0.0,0.0
495.65,1557.0,0.0,0.0,0.0
496.16,1586.0,0.0,0.0,0.0
496.67,1595.0,0.0,0.0,0.0
497.19,1584.0,0.0,0.0,0.0
497.7,1543.0,0.0,0.0,0.0
498.21,1560.0,0.0,0.0,0.0
498.73,1576.0,0.0,0.0,0.0
499.24,1524.0,0.0,0.0,0.0
499.75,1561.0,0.0,0.0,0.0
500.27,1559.0,0.0,0.0,0.0
500.78,1590.0,0.0,0.0,0.0
501.29,1593.0,0.0,0.0,0.0
501.81,1610.0,0.0,0.0,0.0
502.32,1572.0,0.0,0.0,0.0
502.83,1598.0,0.0,0.0,0.0
503.34,1532.0,0.0,0.0,0.0
503.86,1576.0,0.0,0.0,0.0
504.37,1552.0,0.0,0.0,0.0
504.88,1526.0,0.0,0.0,0.0
505.39,1586.0,0.0,0.0,0.0
505.91,1553.0,0.0,0.0,0.0
506.42,1582.0,0.0,0.0,0.0
506.93,1556.0,0.0,0.0,0.0
507.44,1562.0,0.0,0.0,0.0
507.95,1527.0,0.0,0.0,0.0
508.47,1595.0,0.0,0.0,0.0
508.98,1582.0,0.0,0.0,0.0
509.49,1591.0,0.0,0.0,0.0
510.0,1567.0,0.0,0.0,0.0
510.51,1573.0,0.0,0.0,0.0
511.03,1522.0,0.0,0.0,0.0
511.54,1500.0,0.0,0.0,0.0
512.05,1538.0,0.0,0.0,0.0
512.56,1553.0,0.0,0.0,0.0
513.07,1530.0,0.0,0.0,0.0
513.58,1521.0,0.0,0.0,0.0
514.1,1626.0,0.0,0.0,0.0
514.61,1515.0,0.0,0.0,0.0
515.12,1514.0,0.0,0.0,0.0
515.63,1582.0,0.0,0.0,0.0
516.14,1565.0,0.0,0.0,0.0
516.65,1540.0,0.0,0.0,0.0
517.16,1540.0,0.0,0.0,0.0
517.68,1557.0,0.0,0.0,0.0
518.19,1550.0,0.0,0.0,0.0
518.7,1480.0,0.0,0.0,0.0
519.21,1564.0,0.0,0.0,0.0
519.72,1630.0,0.0,0.0,0.0
520.23,1580.0,0.0,0.0,0.0
520.74,1581.0,0.0,0.0,0.0
521.25,1590.0,0.0,0.0,0.0
521.76,1546.0,0.0,0.0,0.0
522.27,1641.0,0.0,0.0,0.0
522.78,1603.0,0.0,0.0,0.0
523.29,1503.0,0.0,0.0,0.0
523.8,1544.0,0.0,0.0,0.0
524.32,1536.0,0.0,0.0,0.0
524.83,1543.0,0.0,0.0,0.0
525.34,1566.0,0.0,0.0,0.0
525.85,1528.0,0.0,0.0,0.0
526.36,1549.0,0.0,0.0,0.0
526.87,1542.0,0.0,0.0,0.0
527.38,1578.0,0.0,0.0,0.0
527.89,1589.0,0.0,0.0,0.0
528.4,1566.0,0.0,0.0,0.0
528.91,1525.0,0.0,0.0,0.0
529.42,1540.0,0.0,0.0,0.0
529.93,1544.0,0.0,0.0,0.0
530.44,1599.0,0.0,0.0,0.0
530.95,1652.0,0.0,0.0,0.0
531.46,1594.0,0.0,0.0,0.0
531.97,1537.0,0.0,0.0,0.0
532.48,1566.0,0.0,0.0,0.0
532.99,1558.0,0.0,0.0,0.0
533.49,1545.0,0.0,0.0,0.0
534.0,1565.0,0.0,0.0,0.0
534.51,1581.0,0.0,0.0,0.0
535.02,1509.0,0.0,0.0,0.0
535.53,1566.0,0.0,0.0,0.0
536.04,1564.0,0.0,0.0,0.0
536.55,1534.0,0.0,0.0,0.0
537.06,1558.0,0.0,0.0,0.0
537.57,1549.0,0.0,0.0,0.0
538.08,1491.0,0.0,0.0,0.0
538.59,1530.0,0.0,0.0,0.0
539.1,1537.0,0.0,0.0,0.0
539.6,1620.0,0.0,0.0,0.0
540.11,1542.0,0.0,0.0,0.0
540.62,1572.0,0.0,0.0,0.0
541.13,1580.0,0.0,0.0,0.0
541.64,1572.0,0.0,0.0,0.0
542.15,1545.0,0.0,0.0,0.0
542.66,1525.0,0.0,0.0,0.0
543.16,1625.0,0.0,0.0,0.0
543.67,1637.0,0.0,0.0,0.0
544.18,1596.0,0.0,0.0,0.0
544.69,1578.0,0.0,0.0,0.0
545.2,1600.0,0.0,0.0,0.0
545.71,1544.0,0.0,0.0,0.0
546.21,1497.0,0.0,0.0,0.0
546.72,1507.0,0.0,0.0,0.0
547.23,1511.0,0.0,0.0,0.0
547.74,1558.0,0.0,0.0,0.0
548.25,1563.0,0.0,0.0,0.0
548.75,1595.0,0.0,0.0,0.0
549.26,1598.0,0.0,0.0,0.0
549.77,1600.0,0.0,0.0,0.0
550.28,1543.0,0.0,0.0,0.0
550.79,1523.0,0.0,0.0,0.0
551.29,1526.0,0.0,0.0,0.0
551.8,1486.0,0.0,0.0,0.0
552.31,1544.0,0.0,0.0,0.0
552.82,1597.0,0.0,0.0,0.0
553.32,1580.0,0.0,0.0,0.0
553.83,1565.0,0.0,0.0,0.0
554.34,1599.0,0.0,0.0,0.0
554.85,1595.0,0.0,0.0,0.0
555.35,1584.0,0.0,0.0,0.0
555.86,1550.0,0.0,0.0,0.0
556.37,1570.0,0.0,0.0,0.0
556.87,1569.0,0.0,0.0,0.0
557.38,1554.0,0.0,0.0,0.0
557.89,1603.0,0.0,0.0,0.0
558.39,1554.0,0.0,0.0,0.0
558.9,1553.0,0.0,0.0,0.0
559.41,1536.0,0.0,0.0,0.0
559.91,1583.0,0.0,0.0,0.0
560.42,1588.0,0.0,0.0,0.0
560.93,1599.0,0.0,0.0,0.0
561.43,1557.0,0.0,0.0,0.0
561.94,1502.0,0.0,0.0,0.0
562.45,1572.0,0.0,0.0,0.0
562.95,1567.0,0.0,0.0,0.0
563.46,1527.0,0.0,0.0,0.0
563.97,1563.0,0.0,0.0,0.0
564.47,1588.0,0.0,0.0,0.0
564.98,1522.0,0.0,0.0,0.0
565.48,1569.0,0.0,0.0,0.0
565.99,1557.0,0.0,0.0,0.0
566.5,1554.0,0.0,0.0,0.0
567.0,1606.0,0.0,0.0,0.0
567.51,1597.0,0.0,0.0,0.0
568.01,1596.0,0.0,0.0,0.0
568.52,1609.0,0.0,0.0,0.0
569.03,1578.0,0.0,0.0,0.0
569.53,1571.0,0.0,0.0,0.0
570.04,1560.0,0.0,0.0,0.0
570.54,1538.0,0.0,0.0,0.0
571.05,1540.0,0.0,0.0,0.0
571.55,1581.0,0.0,0.0,0.0
572.06,1516.0,0.0,0.0,0.0
572.56,1542.0,0.0,0.0,0.0
573.07,1551.0,0.0,0.0,0.0
573.58,1576.0,0.0,0.0,0.0
574.08,1579.0,0.0,0.0,0.0
574.59,1562.0,0.0,0.0,0.0
575.09,1560.0,0.0,0.0,0.0
575.6,1569.0,0.0,0.0,0.0
576.1,1601.0,0.0,0.0,0.0
576.61,1543.0,0.0,0.0,0.0
577.11,1541.0,0.0,0.0,0.0
577.62,1519.0,0.0,0.0,0.0
578.12,1555.0,0.0,0.0,0.0
578.62,1523.0,0.0,0.0,0.0
579.13,1540.0,0.0,0.0,0.0
579.63,1583.0,0.0,0.0,0.0
580.14,1593.0,0.0,0.0,0.0
580.64,1587.0,0.0,0.0,0.0
581.15,1524.0,0.0,0.0,0.0
581.65,1531.0,0.0,0.0,0.0
582.16,1497.0,0.0,0.0,0.0
582.66,1525.0,0.0,0.0,0.0
583.16,1587.0,0.0,0.0,0.0
583.67,1549.0,0.0,0.0,0.0
584.17,1532.0,0.0,0.0,0.0
584.68,1576.0,0.0,0.0,0.0
585.18,1597.0,0.0,0.0,0.0
585.68,1590.0,0.0,0.0,0.0
586.19,1631.0,0.0,0.0,0.0
586.69,1556.0,0.0,0.0,0.0
587.2,1513.0,0.0,0.0,0.0
587.7,1488.0,0.0,0.0,0.0
588.2,1530.0,0.0,0.0,0.0
588.71,1622.0,0.0,0.0,0.0
589.21,1595.0,0.0,0.0,0.0
589.71,1544.0,0.0,0.0,0.0
590.22,1579.0,0.0,0.0,0.0
590.72,1551.0,0.0,0.0,0.0
591.22,1551.0,0.0,0.0,0.0
591.73,1537.0,0.0,0.0,0.0
592.23,1523.0,0.0,0.0,0.0
592.73,1585.0,0.0,0.0,0.0
593.24,1550.0,0.0,0.0,0.0
593.74,1531.0,0.0,0.0,0.0
594.24,1513.0,0.0,0.0,0.0
594.75,1523.0,0.0,0.0,0.0
595.25,1536.0,0.0,0.0,0.0
595.75,1518.0,0.0,0.0,0.0
596.25,1581.0,0.0,0.0,0.0
596.76,1589.0,0.0,0.0,0.0
597.26,1580.0,0.0,0.0,0.0
597.76,1578.0,0.0,0.0,0.0
598.27,1528.0,0.0,0.0,0.0
598.77,1570.0,0.0,0.0,0.0
599.27,1581.0,0.0,0.0,0.0
599.77,1526.0,0.0,0.0,0.0
600.28,1631.0,0.0,0.0,0.0
600.78,1580.0,0.0,0.0,0.0
601.28,1548.0,0.0,0.0,0.0
601.78,1536.0,0.0,0.0,0.0
602.28,1582.0,0.0,0.0,0.0
602.79,1587.0,0.0,0.0,0.0
603.29,1586.0,0.0,0.0,0.0
603.79,1572.0,0.0,0.0,0.0
604.29,1501.0,0.0,0.0,0.0
604.79,1548.0,0.0,0.0,0.0
605.3,1607.0,0.0,0.0,0.0
605.8,1554.0,0.0,0.0,0.0
606.3,1526.0,0.0,0.0,0.0
606.8,1529.0,0.0,0.0,0.0
607.3,1540.0,0.0,0.0,0.0
607.8,1600.0,0.0,0.0,0.0
608.31,1588.0,0.0,0.0,0.0
608.81,1581.0,0.0,0.0,0.0
609.31,1584.0,0.0,0.0,0.0
609.81,1587.0,0.0,0.0,0.0
610.31,1594.0,0.0,0.0,0.0
610.81,1554.0,0.0,0.0,0.0
611.31,1562.0,0.0,0.0,0.0
611.81,1597.0,0.0,0.0,0.0
612.32,1609.0,0.0,0.0,0.0
612.82,1622.0,0.0,0.0,0.0
613.32,1652.0,0.0,0.0,0.0
613.82,1583.0,0.0,0.0,0.0
614.32,1599.0,0.0,0.0,0.0
614.82,1614.0,0.0,0.0,0.0
615.32,1552.0,0.0,0.0,0.0
615.82,1550.0,0.0,0.0,0.0
616.32,1552.0,0.0,0.0,0.0
616.82,1536.0,0.0,0.0,0.0
617.32,1590.0,0.0,0.0,0.0
617.82,1630.0,0.0,0.0,0.0
618.32,1639.0,0.0,0.0,0.0
618.82,1593.0,0.0,0.0,0.0
619.32,1575.0,0.0,0.0,0.0
619.82,1558.0,0.0,0.0,0.0
620.32,1617.0,0.0,0.0,0.0
620.82,1621.0,0.0,0.0,0.0
621.32,1573.0,0.0,0.0,0.0
621.82,1569.0,0.0,0.0,0.0
622.32,1639.0,0.0,0.0,0.0
622.82,1584.0,0.0,0.0,0.0
623.32,1554.0,0.0,0.0,0.0
623.82,1547.0,0.0,0.0,0.0
624.32,1553.0,0.0,0.0,0.0
624.82,1582.0,0.0,0.0,0.0
625.32,1587.0,0.0,0.0,0.0
625.82,1551.0,0.0,0.0,0.0
626.32,1612.0,0.0,0.0,0.0
626.82,1582.0,0.0,0.0,0.0
627.32,1600.0,0.0,0.0,0.0
627.82,1567.0,0.0,0.0,0.0
628.32,1515.0,0.0,0.0,0.0
628.82,1570.0,0.0,0.0,0.0
629.32,1579.0,0.0,0.0,0.0
629.82,1585.0,0.0,0.0,0.0
630.32,1547.0,0.0,0.0,0.0
630.81,1576.0,0.0,0.0,0.0
631.31,1602.0,0.0,0.0,0.0
631.81,1528.0,0.0,0.0,0.0
632.31,1521.0,0.0,0.0,0.0
632.81,1548.0,0.0,0.0,0.0
633.31,1603.0,0.0,0.0,0.0
633.81,1641.0,0.0,0.0,0.0
634.31,1639.0,0.0,0.0,0.0
634.8,1583.0,0.0,0.0,0.0
635.3,1599.0,0.0,0.0,0.0
635.8,1594.0,0.0,0.0,0.0
636.3,1616.0,0.0,0.0,0.0
636.8,1586.0,0.0,0.0,0.0
637.3,1568.0,0.0,0.0,0.0
637.79,1605.0,0.0,0.0,0.0
638.29,1576.0,0.0,0.0,0.0
638.79,1576.0,0.0,0.0,0.0
639.29,1629.0,0.0,0.0,0.0
639.79,1601.0,0.0,0.0,0.0
640.28,1535.0,0.0,0.0,0.0
640.78,1528.0,0.0,0.0,0.0
641.28,1517.0,0.0,0.0,0.0
641.78,1521.0,0.0,0.0,0.0
642.28,1483.0,0.0,0.0,0.0
642.77,1520.0,0.0,0.0,0.0
643.27,1565.0,0.0,0.0,0.0
643.77,1561.0,0.0,0.0,0.0
644.27,1592.0,0.0,0.0,0.0
644.76,1619.0,0.0,0.0,0.0
645.26,1617.0,0.0,0.0,0.0
645.76,1592.0,0.0,0.0,0.0
646.25,1639.0,0.0,0.0,0.0
646.75,1561.0,0.0,0.0,0.0
647.25,1581.0,0.0,0.0,0.0
647.75,1590.0,0.0,0.0,0.0
648.24,1564.0,0.0,0.0,0.0
648.74,1520.0,0.0,0.0,0.0
649.24,1601.0,0.0,0.0,0.0
649.73,1607.0,0.0,0.0,0.0
650.23,1592.0,0.0,0.0,0.0
650.73,1551.0,0.0,0.0,0.0
651.22,1535.0,0.0,0.0,0.0
651.72,1555.0,0.0,0.0,0.0
652.22,1569.0,0.0,0.0,0.0
652.71,1639.0,0.0,0.0,0.0
653.21,1598.0,0.0,0.0,0.0
653.71,1539.0,0.0,0.0,0.0
654.2,1582.0,0.0,0.0,0.0
654.7,1590.0,0.0,0.0,0.0
655.2,1595.0,0.0,0.0,0.0
655.69,1563.0,0.0,0.0,0.0
656.19,1576.0,0.0,0.0,0.0
656.68,1556.0,0.0,0.0,0.0
657.18,1623.0,0.0,0.0,0.0
657.68,1579.0,0.0,0.0,0.0
658.17,1576.0,0.0,0.0,0.0
658.67,1580.0,0.0,0.0,0.0
659.16,1528.0,0.0,0.0,0.0
659.66,1541.0,0.0,0.0,0.0
660.15,1614.0,0.0,0.0,0.0
660.65,1569.0,0.0,0.0,0.0
661.15,1469.0,0.0,0.0,0.0
661.64,1552.0,0.0,0.0,0.0
662.14,1622.0,0.0,0.0,0.0
662.63,1557.0,0.0,0.0,0.0
663.13,1548.0,0.0,0.0,0.0
663.62,1569.0,0.0,0.0,0.0
664.12,1594.0,0.0,0.0,0.0
664.61,1584.0,0.0,0.0,0.0
665.11,1613.0,0.0,0.0,0.0
665.6,1592.0,0.0,0.0,0.0
666.1,1621.0,0.0,0.0,0.0
666.59,1555.0,0.0,0.0,0.0
667.09,1572.0,0.0,0.0,0.0
667.58,1496.0,0.0,0.0,0.0
668.08,1544.0,0.0,0.0,0.0
668.57,1564.0,0.0,0.0,0.0
669.07,1573.0,0.0,0.0,0.0
669.56,1585.0,0.0,0.0,0.0
670.06,1583.0,0.0,0.0,0.0
670.55,1541.0,0.0,0.0,0.0
671.05,1560.0,0.0,0.0,0.0
671.54,1559.0,0.0,0.0,0.0
672.03,1597.0,0.0,0.0,0.0
672.53,1578.0,0.0,0.0,0.0
673.02,1579.0,0.0,0.0,0.0
673.52,1611.0,0.0,0.0,0.0
674.01,1630.0,0.0,0.0,0.0
674.5,1592.0,0.0,0.0,0.0
675.0,1565.0,0.0,0.0,0.0
675.49,1563.0,0.0,0.0,0.0
675.99,1540.0,0.0,0.0,0.0
676.48,1539.0,0.0,0.0,0.0
676.97,1604.0,0.0,0.0,0.0
677.47,1585.0,0.0,0.0,0.0
677.96,1556.0,0.0,0.0,0.0
678.45,1553.0,0.0,0.0,0.0
678.95,1563.0,0.0,0.0,0.0
679.44,1590.0,0.0,0.0,0.0
679.94,1563.0,0.0,0.0,0.0
680.43,1561.0,0.0,0.0,0.0
680.92,1545.0,0.0,0.0,0.0
681.42,1514.0,0.0,0.0,0.0
681.91,1562.0,0.0,0.0,0.0
682.4,1566.0,0.0,0.0,0.0
682.89,1599.0,0.0,0.0,0.0
683.39,1575.0,0.0,0.0,0.0
683.88,1597.0,0.0,0.0,0.0
684.37,1626.0,0.0,0.0,0.0
684.87,1559.0,0.0,0.0,0.0
685.36,1588.0,0.0,0.0,0.0
685.85,1596.0,0.0,0.0,0.0
686.34,1545.0,0.0,0.0,0.0
686.84,1566.0,0.0,0.0,0.0
687.33,1594.0,0.0,0.0,0.0
687.82,1569.0,0.0,0.0,0.0
688.31,1565.0,0.0,0.0,0.0
688.81,1564.0,0.0,0.0,0.0
689.3,1524.0,0.0,0.0,0.0
689.79,1574.0,0.0,0.0,0.0
690.28,1557.0,0.0,0.0,0.0
690.78,1582.0,0.0,0.0,0.0
691.27,1555.0,0.0,0.0,0.0
691.76,1542.0,0.0,0.0,0.0
692.25,1543.0,0.0,0.0,0.0
692.74,1574.0,0.0,0.0,0.0
693.24,1578.0,0.0,0.0,0.0
693.73,1567.0,0.0,0.0,0.0
694.22,1563.0,0.0,0.0,0.0
694.71,1538.0,0.0,0.0,0.0
695.2,1557.0,0.0,0.0,0.0
695.69,1569.0,0.0,0.0,0.0
696.19,1573.0,0.0,0.0,0.0
696.68,1501.0,0.0,0.0,0.0
697.17,1483.0,0.0,0.0,0.0
697.66,1557.0,0.0,0.0,0.0
698.15,1566.0,0.0,0.0,0.0
698.64,1541.0,0.0,0.0,0.0
699.13,1605.0,0.0,0.0,0.0
699.63,1567.0,0.0,0.0,0.0
700.12,1551.0,0.0,0.0,0.0
700.61,1570.0,0.0,0.0,0.0
701.1,1642.0,0.0,0.0,0.0
701.59,1601.0,0.0,0.0,0.0
702.08,1572.0,0.0,0.0,0.0
702.57,1580.0,0.0,0.0,0.0
703.06,1556.0,0.0,0.0,0.0
703.55,1533.0,0.0,0.0,0.0
704.04,1553.0,0.0,0.0,0.0
704.53,1589.0,0.0,0.0,0.0
705.02,1572.0,0.0,0.0,0.0
705.51,1564.0,0.0,0.0,0.0
706.0,1585.0,0.0,0.0,0.0
706.49,1562.0,0.0,0.0,0.0
706.99,1532.0,0.0,0.0,0.0
707.48,1555.0,0.0,0.0,0.0
707.97,1540.0,0.0,0.0,0.0
708.46,1579.0,0.0,0.0,0.0
708.95,1509.0,0.0,0.0,0.0
709.44,1459.0,0.0,0.0,0.0
709.93,1490.0,0.0,0.0,0.0
710.42,1542.0,0.0,0.0,0.0
710.91,1599.0,0.0,0.0,0.0
711.39,1538.0,0.0,0.0,0.0
711.88,1532.0,0.0,0.0,0.0
712.37,1533.0,0.0,0.0,0.0
712.86,1515.0,0.0,0.0,0.0
713.35,1625.0,0.0,0.0,0.0
713.84,1619.0,0.0,0.0,0.0
714.33,1574.0,0.0,0.0,0.0
714.82,1583.0,0.0,0.0,0.0
715.31,1567.0,0.0,0.0,0.0
715.8,1565.0,0.0,0.0,0.0
716.29,1603.0,0.0,0.0,0.0
716.78,1580.0,0.0,0.0,0.0
717.27,1578.0,0.0,0.0,0.0
717.76,1567.0,0.0,0.0,0.0
718.25,1588.0,0.0,0.0,0.0
718.73,1528.0,0.0,0.0,0.0
719.22,1542.0,0.0,0.0,0.0
719.71,1555.0,0.0,0.0,0.0
720.2,1587.0,0.0,0.0,0.0
720.69,1594.0,0.0,0.0,0.0
721.18,1580.0,0.0,0.0,0.0
721.67,1544.0,0.0,0.0,0.0
722.15,1556.0,0.0,0.0,0.0
722.64,1513.0,0.0,0.0,0.0
723.13,1567.0,0.0,0.0,0.0
723.62,1530.0,0.0,0.0,0.0
724.11,1580.0,0.0,0.0,0.0
724.6,1605.0,0.0,0.0,0.0
725.08,1579.0,0.0,0.0,0.0
725.57,1569.0,0.0,0.0,0.0
726.06,1564.0,0.0,0.0,0.0
726.55,1566.0,0.0,0.0,0.0
727.04,1543.0,0.0,0.0,0.0
727.52,1522.0,0.0,0.0,0.0
728.01,1506.0,0.0,0.0,0.0
728.5,1566.0,0.0,0.0,0.0
728.99,1558.0,0.0,0.0,0.0
729.48,1501.0,0.0,0.0,0.0
729.96,1464.0,0.0,0.0,0.0
730.45,1479.0,0.0,0.0,0.0
730.94,1517.0,0.0,0.0,0.0
731.43,1475.0,0.0,0.0,0.0
731.91,1541.0,0.0,0.0,0.0
732.4,1555.0,0.0,0.0,0.0
732.89,1536.0,0.0,0.0,0.0
733.37,1572.0,0.0,0.0,0.0
733.86,1552.0,0.0,0.0,0.0
734.35,1588.0,0.0,0.0,0.0
734.84,1558.0,0.0,0.0,0.0
735.32,1513.0,0.0,0.0,0.0
735.81,1504.0,0.0,0.0,0.0
736.3,1511.0,0.0,0.0,0.0
736.78,1542.0,0.0,0.0,0.0
737.27,1599.0,0.0,0.0,0.0
737.76,1586.0,0.0,0.0,0.0
738.24,1566.0,0.0,0.0,0.0
738.73,1506.0,0.0,0.0,0.0
739.22,1592.0,0.0,0.0,0.0
739.7,1559.0,0.0,0.0,0.0
740.19,1583.0,0.0,0.0,0.0
740.67,1576.0,0.0,0.0,0.0
741.16,1539.0,0.0,0.0,0.0
741.65,1538.0,0.0,0.0,0.0
742.13,1536.0,0.0,0.0,0.0
742.62,1538.0,0.0,0.0,0.0
743.1,1485.0,0.0,0.0,0.0
743.59,1505.0,0.0,0.0,0.0
744.08,1537.0,0.0,0.0,0.0
744.56,1557.0,0.0,0.0,0.0
745.05,1597.0,0.0,0.0,0.0
745.53,1599.0,0.0,0.0,0.0
746.02,1551.0,0.0,0.0,0.0
746.51,1501.0,0.0,0.0,0.0
746.99,1557.0,0.0,0.0,0.0
747.48,1581.0,0.0,0.0,0.0
747.96,1549.0,0.0,0.0,0.0
748.45,1639.0,0.0,0.0,0.0
748.93,1590.0,0.0,0.0,0.0
749.42,1585.0,0.0,0.0,0.0
749.9,1617.0,0.0,0.0,0.0
750.39,1539.0,0.0,0.0,0.0
750.87,1545.0,0.0,0.0,0.0
751.36,1550.0,0.0,0.0,0.0
751.84,1518.0,0.0,0.0,0.0
752.33,1534.0,0.0,0.0,0.0
752.81,1556.0,0.0,0.0,0.0
753.3,1556.0,0.0,0.0,0.0
753.78,1557.0,0.0,0.0,0.0
754.27,1586.0,0.0,0.0,0.0
754.75,1559.0,0.0,0.0,0.0
755.24,1561.0,0.0,0.0,0.0
755.72,1610.0,0.0,0.0,0.0
756.2,1595.0,0.0,0.0,0.0
756.69,1559.0,0.0,0.0,0.0
757.17,1584.0,0.0,0.0,0.0
757.66,1568.0,0.0,0.0,0.0
758.14,1511.0,0.0,0.0,0.0
758.63,1562.0,0.0,0.0,0.0
759.11,1562.0,0.0,0.0,0.0
759.59,1560.0,0.0,0.0,0.0
760.08,1507.0,0.0,0.0,0.0
760.56,1552.0,0.0,0.0,0.0
761.05,1556.0,0.0,0.0,0.0
761.53,1595.0,0.0,0.0,0.0
762.01,1629.0,0.0,0.0,0.0
762.5,1614.0,0.0,0.0,0.0
762.98,1509.0,0.0,0.0,0.0
763.46,1532.0,0.0,0.0,0.0
763.95,1559.0,0.0,0.0,0.0
764.43,1500.0,0.0,0.0,0.0
764.91,1567.0,0.0,0.0,0.0
765.4,1518.0,0.0,0.0,0.0
765.88,1531.0,0.0,0.0,0.0
766.36,1554.0,0.0,0.0,0.0
766.85,1579.0,0.0,0.0,0.0
767.33,1563.0,0.0,0.0,0.0
767.81,1565.0,0.0,0.0,0.0
768.3,1515.0,0.0,0.0,0.0
768.78,1533.0,0.0,0.0,0.0
769.26,1577.0,0.0,0.0,0.0
769.74,1600.0,0.0,0.0,0.0
770.23,1560.0,0.0,0.0,0.0
770.71,1558.0,0.0,0.0,0.0
771.19,1611.0,0.0,0.0,0.0
771.67,1598.0,0.0,0.0,0.0
772.16,1554.0,0.0,0.0,0.0
772.64,1534.0,0.0,0.0,0.0
773.12,1533.0,0.0,0.0,0.0
773.6,1600.0,0.0,0.0,0.0
774.09,1540.0,0.0,0.0,0.0
774.57,1544.0,0.0,0.0,0.0
775.05,1533.0,0.0,0.0,0.0
775.53,1545.0,0.0,0.0,0.0
776.01,1592.0,0.0,0.0,0.0
776.5,1555.0,0.0,0.0,0.0
776.98,1584.0,0.0,0.0,0.0
777.46,1580.0,0.0,0.0,0.0
777.94,1575.0,0.0,0.0,0.0
778.42,1583.0,0.0,0.0,0.0
778.91,1556.0,0.0,0.0,0.0
779.39,1568.0,0.0,0.0,0.0
779.87,1555.0,0.0,0.0,0.0
780.35,1607.0,0.0,0.0,0.0
780.83,1596.0,0.0,0.0,0.0
781.31,1571.0,0.0,0.0,0.0
781.79,1563.0,0.0,0.0,0.0
782.27,1590.0,0.0,0.0,0.0
782.76,1620.0,0.0,0.0,0.0
783.24,1598.0,0.0,0.0,0.0
783.72,1595.0,0.0,0.0,0.0
784.2,1534.0,0.0,0.0,0.0
784.68,1496.0,0.0,0.0,0.0
785.16,1536.0,0.0,0.0,0.0
785.64,1561.0,0.0,0.0,0.0
786.12,1601.0,0.0,0.0,0.0
786.6,1541.0,0.0,0.0,0.0
787.08,1614.0,0.0,0.0,0.0
787.56,1543.0,0.0,0.0,0.0
788.05,1551.0,0.0,0.0,0.0
788.53,1540.0,0.0,0.0,0.0
789.01,1558.0,0.0,0.0,0.0
789.49,1541.0,0.0,0.0,0.0
789.97,1501.0,0.0,0.0,0.0
790.45,1574.0,0.0,0.0,0.0
790.93,1599.0,0.0,0.0,0.0
791.41,1589.0,0.0,0.0,0.0
791.89,1603.0,0.0,0.0,0.0
792.37,1568.0,0.0,0.0,0.0
792.85,1561.0,0.0,0.0,0.0
793.33,1541.0,0.0,0.0,0.0
793.81,1512.0,0.0,0.0,0.0
794.29,1544.0,0.0,0.0,0.0
794.77,1510.0,0.0,0.0,0.0
795.25,1558.0,0.0,0.0,0.0
795.73,1580.0,0.0,0.0,0.0
796.2,1627.0,0.0,0.0,0.0
796.68,1570.0,0.0,0.0,0.0
797.16,1546.0,0.0,0.0,0.0
797.64,1562.0,0.0,0.0,0.0
798.12,1572.0,0.0,0.0,0.0
798.6,1573.0,0.0,0.0,0.0
799.08,1551.0,0.0,0.0,0.0
799.56,1609.0,0.0,0.0,0.0
800.04,1562.0,0.0,0.0,0.0
800.52,1559.0,0.0,0.0,0.0
801.0,1613.0,0.0,0.0,0.0
801.48,1641.0,0.0,0.0,0.0
801.95,1567.0,0.0,0.0,0.0
802.43,1544.0,0.0,0.0,0.0
802.91,1578.0,0.0,0.0,0.0
803.39,1585.0,0.0,0.0,0.0
803.87,1547.0,0.0,0.0,0.0
804.35,1520.0,0.0,0.0,0.0
804.83,1540.0,0.0,0.0,0.0
805.3,1531.0,0.0,0.0,0.0
805.78,1557.0,0.0,0.0,0.0
806.26,1548.0,0.0,0.0,0.0
806.74,1556.0,0.0,0.0,0.0
807.22,1500.0,0.0,0.0,0.0
807.69,1550.0,0.0,0.0,0.0
808.17,1607.0,0.0,0.0,0.0
808.65,1564.0,0.0,0.0,0.0
809.13,1553.0,0.0,0.0,0.0
809.61,1562.0,0.0,0.0,0.0
810.08,1574.0,0.0,0.0,0.0
810.56,1610.0,0.0,0.0,0.0
811.04,1617.0,0.0,0.0,0.0
811.52,1552.0,0.0,0.0,0.0
811.99,1540.0,0.0,0.0,0.0
812.47,1528.0,0.0,0.0,0.0
812.95,1544.0,0.0,0.0,0.0
813.43,1540.0,0.0,0.0,0.0
813.9,1522.0,0.0,0.0,0.0
814.38,1568.0,0.0,0.0,0.0
814.86,1631.0,0.0,0.0,0.0
815.34,1560.0,0.0,0.0,0.0
815.81,1563.0,0.0,0.0,0.0
816.29,1576.0,0.0,0.0,0.0
816.77,1581.0,0.0,0.0,0.0
817.24,1570.0,0.0,0.0,0.0
817.72,1597.0,0.0,0.0,0.0
818.2,1590.0,0.0,0.0,0.0
818.67,1610.0,0.0,0.0,0.0
819.15,1581.0,0.0,0.0,0.0
819.63,1524.0,0.0,0.0,0.0
820.1,1537.0,0.0,0.0,0.0
820.58,1591.0,0.0,0.0,0.0
821.06,1574.0,0.0,0.0,0.0
821.53,1601.0,0.0,0.0,0.0
822.01,1580.0,0.0,0.0,0.0
822.49,1514.0,0.0,0.0,0.0
822.96,1534.0,0.0,0.0,0.0
823.44,1523.0,0.0,0.0,0.0
823.91,1580.0,0.0,0.0,0.0
824.39,1558.0,0.0,0.0,0.0
824.87,1587.0,0.0,0.0,0.0
825.34,1523.0,0.0,0.0,0.0
825.82,1543.0,0.0,0.0,0.0
826.29,1556.0,0.0,0.0,0.0
826.77,1581.0,0.0,0.0,0.0
827.24,1547.0,0.0,0.0,0.0
827.72,1501.0,0.0,0.0,0.0
828.2,1551.0,0.0,0.0,0.0
828.67,1530.0,0.0,0.0,0.0
829.15,1515.0,0.0,0.0,0.0
829.62,1536.0,0.0,0.0,0.0
830.1,1527.0,0.0,0.0,0.0
830.57,1526.0,0.0,0.0,0.0
831.05,1530.0,0.0,0.0,0.0
831.52,1554.0,0.0,0.0,0.0
832.0,1544.0,0.0,0.0,0.0
832.47,1578.0,0.0,0.0,0.0
832.95,1560.0,0.0,0.0,0.0
833.42,1573.0,0.0,0.0,0.0
833.9,1578.0,0.0,0.0,0.0
834.37,1576.0,0.0,0.0,0.0
834.85,1507.0,0.0,0.0,0.0
835.32,1525.0,0.0,0.0,0.0
835.79,1601.0,0.0,0.0,0.0
836.27,1559.0,0.0,0.0,0.0
836.74,1571.0,0.0,0.0,0.0
837.22,1578.0,0.0,0.0,0.0
837.69,1517.0,0.0,0.0,0.0
838.17,1570.0,0.0,0.0,0.0
838.64,1600.0,0.0,0.0,0.0
839.11,1585.0,0.0,0.0,0.0
839.59,1581.0,0.0,0.0,0.0
840.06,1613.0,0.0,0.0,0.0
840.54,1532.0,0.0,0.0,0.0
841.01,1580.0,0.0,0.0,0.0
841.48,1589.0,0.0,0.0,0.0
841.96,1568.0,0.0,0.0,0.0
842.43,1588.0,0.0,0.0,0.0
842.91,1522.0,0.0,0.0,0.0
843.38,1519.0,0.0,0.0,0.0
843.85,1541.0,0.0,0.0,0.0
844.33,1579.0,0.0,0.0,0.0
844.8,1551.0,0.0,0.0,0.0
845.27,1510.0,0.0,0.0,0.0
845.75,1607.0,0.0,0.0,0.0
846.22,1521.0,0.0,0.0,0.0
846.69,1565.0,0.0,0.0,0.0
847.16,1549.0,0.0,0.0,0.0
847.64,1551.0,0.0,0.0,0.0
848.11,1597.0,0.0,0.0,0.0
848.58,1557.0,0.0,0.0,0.0
849.06,1530.0,0.0,0.0,0.0
849.53,1541.0,0.0,0.0,0.0
850.0,1526.0,0.0,0.0,0.0
850.47,1586.0,0.0,0.0,0.0
850.95,1580.0,0.0,0.0,0.0
851.42,1578.0,0.0,0.0,0.0
851.89,1550.0,0.0,0.0,0.0
852.36,1585.0,0.0,0.0,0.0
852.84,1545.0,0.0,0.0,0.0
853.31,1540.0,0.0,0.0,0.0
853.78,1624.0,0.0,0.0,0.0
854.25,1597.0,0.0,0.0,0.0
854.73,1540.0,0.0,0.0,0.0
855.2,1544.0,0.0,0.0,0.0
855.67,1610.0,0.0,0.0,0.0
856.14,1613.0,0.0,0.0,0.0
856.61,1581.0,0.0,0.0,0.0
857.08,1576.0,0.0,0.0,0.0
857.56,1585.0,0.0,0.0,0.0
858.03,1522.0,0.0,0.0,0.0
858.5,1564.0,0.0,0.0,0.0
858.97,1591.0,0.0,0.0,0.0
859.44,1602.0,0.0,0.0,0.0
859.91,1634.0,0.0,0.0,0.0
860.39,1575.0,0.0,0.0,0.0
860.86,1567.0,0.0,0.0,0.0
861.33,1593.0,0.0,0.0,0.0
861.8,1551.0,0.0,0.0,0.0
862.27,1583.0,0.0,0.0,0.0
862.74,1488.0,0.0,0.0,0.0
863.21,1520.0,0.0,0.0,0.0
863.68,1579.0,0.0,0.0,0.0
864.15,1598.0,0.0,0.0,0.0
864.63,1566.0,0.0,0.0,0.0
865.1,1602.0,0.0,0.0,0.0
865.57,1566.0,0.0,0.0,0.0
866.04,1623.0,0.0,0.0,0.0
866.51,1655.0,0.0,0.0,0.0
866.98,1698.0,0.0,0.0,0.0
867.45,1730.0,0.0,0.0,0.0
867.92,1681.0,0.0,0.0,0.0
868.39,1716.0,0.0,0.0,0.0
868.86,1659.0,0.0,0.0,0.0
869.33,1691.0,0.0,0.0,0.0
869.8,1744.0,0.0,0.0,0.0
870.27,1750.0,0.0,0.0,0.0
870.74,1870.0,0.0,0.0,0.0
871.21,1818.0,0.0,0.0,0.0
871.68,1802.0,0.0,0.0,0.0
872.15,1823.0,0.0,0.0,0.0
872.62,1808.0,0.0,0.0,0.0
873.09,1754.0,0.0,0.0,0.0
873.56,1723.0,0.0,0.0,0.0
874.03,1725.0,0.0,0.0,0.0
874.5,1699.0,0.0,0.0,0.0
874.97,1689.0,0.0,0.0,0.0
875.44,1667.0,0.0,0.0,0.0
875.91,1789.0,0.0,0.0,0.0
876.38,1877.0,0.0,0.0,0.0
876.84,1943.0,0.0,0.0,0.0
877.31,1953.0,0.0,0.0,0.0
877.78,1970.0,0.0,0.0,0.0
878.25,2107.0,0.0,0.0,0.0
878.72,2417.0,0.0,0.0,0.0
879.19,2828.0,0.0,0.0,0.0
879.66,3083.0,0.0,0.0,0.0
880.13,3109.0,0.0,0.0,0.0
880.6,3193.0,0.0,0.0,0.0
881.06,3305.0,0.0,0.0,0.0
881.53,3341.0,0.0,0.0,0.0
882.0,3734.0,0.0,0.0,0.0
882.47,4759.0,0.0,0.0,0.0
882.94,6093.0,0.0,0.0,0.0
883.41,6975.0,0.0,0.0,0.0
883.88,7318.0,0.0,0.0,0.0
884.34,7090.0,0.0,0.0,0.0
884.81,7055.0,0.0,0.0,0.0
885.28,7200.0,0.0,0.0,0.0
885.75,8281.0,0.0,0.0,0.0
886.22,9448.0,0.0,0.0,0.0
886.68,9797.0,0.0,0.0,0.0
887.15,10366.0,0.0,0.0,0.0
887.62,12363.0,0.0,0.0,0.0
888.09,13948.0,0.0,0.0,0.0
888.55,13519.0,0.0,0.0,0.0
889.02,12124.0,0.0,0.0,0.0
889.49,10597.0,0.0,0.0,0.0
889.96,10657.0,0.0,0.0,0.0
890.42,11812.0,0.0,0.0,0.0
890.89,12068.0,0.0,0.0,0.0
891.36,12399.0,0.0,0.0,0.0
891.83,12498.0,0.0,0.0,0.0
892.29,12114.0,0.0,0.0,0.0
892.76,11422.0,0.0,0.0,0.0
893.23,11364.0,0.0,0.0,0.0
893.69,12520.0,0.0,0.0,0.0
894.16,13143.0,0.0,0.0,0.0
894.63,12332.0,0.0,0.0,0.0
895.1,11958.0,0.0,0.0,0.0
895.56,12931.0,0.0,0.0,0.0
896.03,13782.0,0.0,0.0,0.0
896.5,13492.0,0.0,0.0,0.0
896.96,12647.0,0.0,0.0,0.0
897.43,12336.0,0.0,0.0,0.0
897.89,12731.0,0.0,0.0,0.0
898.36,12509.0,0.0,0.0,0.0
898.83,11619.0,0.0,0.0,0.0
899.29,9798.0,0.0,0.0,0.0
899.76,8372.0,0.0,0.0,0.0
900.23,8656.0,0.0,0.0,0.0
900.69,9331.0,0.0,0.0,0.0
901.16,9057.0,0.0,0.0,0.0
901.62,8480.0,0.0,0.0,0.0
902.09,7632.0,0.0,0.0,0.0
902.56,6682.0,0.0,0.0,0.0
903.02,6724.0,0.0,0.0,0.0
903.49,6821.0,0.0,0.0,0.0
903.95,6607.0,0.0,0.0,0.0
904.42,6082.0,0.0,0.0,0.0
904.88,5635.0,0.0,0.0,0.0
905.35,5628.0,0.0,0.0,0.0
905.81,5767.0,0.0,0.0,0.0
906.28,5379.0,0.0,0.0,0.0
906.75,4337.0,0.0,0.0,0.0
907.21,3765.0,0.0,0.0,0.0
907.68,3589.0,0.0,0.0,0.0
908.14,3500.0,0.0,0.0,0.0
908.61,3547.0,0.0,0.0,0.0
909.07,3458.0,0.0,0.0,0.0
909.54,3139.0,0.0,0.0,0.0
910.0,2765.0,0.0,0.0,0.0
910.46,2430.0,0.0,0.0,0.0
910.93,2204.0,0.0,0.0,0.0
911.39,2132.0,0.0,0.0,0.0
911.86,2074.0,0.0,0.0,0.0
912.32,2019.0,0.0,0.0,0.0
912.79,1913.0,0.0,0.0,0.0
913.25,1800.0,0.0,0.0,0.0
913.72,1787.0,0.0,0.0,0.0
914.18,1706.0,0.0,0.0,0.0
914.64,1660.0,0.0,0.0,0.0
915.11,1629.0,0.0,0.0,0.0
915.57,1655.0,0.0,0.0,0.0
916.04,1613.0,0.0,0.0,0.0
916.5,1587.0,0.0,0.0,0.0
916.96,1590.0,0.0,0.0,0.0
917.43,1648.0,0.0,0.0,0.0
917.89,1664.0,0.0,0.0,0.0
918.36,1585.0,0.0,0.0,0.0
918.82,1565.0,0.0,0.0,0.0
919.28,1582.0,0.0,0.0,0.0
919.75,1575.0,0.0,0.0,0.0
920.21,1622.0,0.0,0.0,0.0
920.67,1602.0,0.0,0.0,0.0
921.14,1568.0,0.0,0.0,0.0
921.6,1596.0,0.0,0.0,0.0
922.06,1586.0,0.0,0.0,0.0
922.53,1625.0,0.0,0.0,0.0
922.99,1582.0,0.0,0.0,0.0
923.45,1577.0,0.0,0.0,0.0
923.92,1581.0,0.0,0.0,0.0
924.38,1549.0,0.0,0.0,0.0
924.84,1529.0,0.0,0.0,0.0
925.3,1539.0,0.0,0.0,0.0
925.77,1535.0,0.0,0.0,0.0
926.23,1585.0,0.0,0.0,0.0
926.69,1581.0,0.0,0.0,0.0
927.15,1617.0,0.0,0.0,0.0
927.62,1586.0,0.0,0.0,0.0
928.08,1556.0,0.0,0.0,0.0
928.54,1594.0,0.0,0.0,0.0
929.0,1603.0,0.0,0.0,0.0
929.47,1575.0,0.0,0.0,0.0
929.93,1600.0,0.0,0.0,0.0
930.39,1569.0,0.0,0.0,0.0
930.85,1572.0,0.0,0.0,0.0
931.31,1534.0,0.0,0.0,0.0
931.78,1554.0,0.0,0.0,0.0
932.24,1521.0,0.0,0.0,0.0
932.7,1561.0,0.0,0.0,0.0
933.16,1547.0,0.0,0.0,0.0
933.62,1545.0,0.0,0.0,0.0
934.08,1529.0,0.0,0.0,0.0
934.55,1559.0,0.0,0.0,0.0
935.01,1601.0,0.0,0.0,0.0
935.47,1606.0,0.0,0.0,0.0
935.93,1508.0,0.0,0.0,0.0
936.39,1541.0,0.0,0.0,0.0
936.85,1563.0,0.0,0.0,0.0
937.31,1568.0,0.0,0.0,0.0
937.77,1562.0,0.0,0.0,0.0
938.23,1568.0,0.0,0.0,0.0
938.7,1569.0,0.0,0.0,0.0
939.16,1605.0,0.0,0.0,0.0
939.62,1572.0,0.0,0.0,0.0
940.08,1526.0,0.0,0.0,0.0
940.54,1580.0,0.0,0.0,0.0
941.0,1592.0,0.0,0.0,0.0
941.46,1602.0,0.0,0.0,0.0
941.92,1526.0,0.0,0.0,0.0
942.38,1505.0,0.0,0.0,0.0
942.84,1592.0,0.0,0.0,0.0
943.3,1596.0,0.0,0.0,0.0
943.76,1534.0,0.0,0.0,0.0
944.22,1567.0,0.0,0.0,0.0
944.68,1602.0,0.0,0.0,0.0
945.14,1547.0,0.0,0.0,0.0
945.6,1553.0,0.0,0.0,0.0
946.06,1500.0,0.0,0.0,0.0
946.52,1520.0,0.0,0.0,0.0
946.98,1527.0,0.0,0.0,0.0
947.44,1551.0,0.0,0.0,0.0
947.9,1578.0,0.0,0.0,0.0
948.36,1574.0,0.0,0.0,0.0
948.82,1557.0,0.0,0.0,0.0
949.28,1586.0,0.0,0.0,0.0
949.74,1563.0,0.0,0.0,0.0
950.2,1553.0,0.0,0.0,0.0
950.66,1598.0,0.0,0.0,0.0
951.12,1584.0,0.0,0.0,0.0
951.58,1548.0,0.0,0.0,0.0
952.03,1498.0,0.0,0.0,0.0
952.49,1551.0,0.0,0.0,0.0
952.95,1531.0,0.0,0.0,0.0
953.41,1550.0,0.0,0.0,0.0
953.87,1570.0,0.0,0.0,0.0
954.33,1581.0,0.0,0.0,0.0
954.79,1550.0,0.0,0.0,0.0
955.25,1557.0,0.0,0.0,0.0
955.71,1564.0,0.0,0.0,0.0
956.16,1553.0,0.0,0.0,0.0
956.62,1528.0,0.0,0.0,0.0
957.08,1532.0,0.0,0.0,0.0
957.54,1549.0,0.0,0.0,0.0
958.0,1596.0,0.0,0.0,0.0
958.46,1617.0,0.0,0.0,0.0
958.91,1576.0,0.0,0.0,0.0
959.37,1572.0,0.0,0.0,0.0
959.83,1624.0,0.0,0.0,0.0
960.29,1569.0,0.0,0.0,0.0
960.75,1596.0,0.0,0.0,0.0
961.2,1563.0,0.0,0.0,0.0
961.66,1559.0,0.0,0.0,0.0
962.12,1547.0,0.0,0.0,0.0
962.58,1604.0,0.0,0.0,0.0
963.03,1608.0,0.0,0.0,0.0
963.49,1606.0,0.0,0.0,0.0
963.95,1583.0,0.0,0.0,0.0
964.41,1566.0,0.0,0.0,0.0
964.86,1569.0,0.0,0.0,0.0
965.32,1560.0,0.0,0.0,0.0
965.78,1517.0,0.0,0.0,0.0
966.23,1540.0,0.0,0.0,0.0
966.69,1546.0,0.0,0.0,0.0
967.15,1494.0,0.0,0.0,0.0
967.61,1564.0,0.0,0.0,0.0
968.06,1569.0,0.0,0.0,0.0
968.52,1528.0,0.0,0.0,0.0
968.98,1564.0,0.0,0.0,0.0
969.43,1627.0,0.0,0.0,0.0
969.89,1539.0,0.0,0.0,0.0
970.35,1563.0,0.0,0.0,0.0
970.8,1572.0,0.0,0.0,0.0
971.26,1550.0,0.0,0.0,0.0
971.71,1562.0,0.0,0.0,0.0
972.17,1544.0,0.0,0.0,0.0
972.63,1562.0,0.0,0.0,0.0
973.08,1606.0,0.0,0.0,0.0
973.54,1611.0,0.0,0.0,0.0
974.0,1537.0,0.0,0.0,0.0
974.45,1519.0,0.0,0.0,0.0
974.91,1532.0,0.0,0.0,0.0
975.36,1560.0,0.0,0.0,0.0
975.82,1560.0,0.0,0.0,0.0
976.27,1631.0,0.0,0.0,0.0
976.73,1600.0,0.0,0.0,0.0
977.19,1514.0,0.0,0.0,0.0
977.64,1536.0,0.0,0.0,0.0
978.1,1563.0,0.0,0.0,0.0
978.55,1574.0,0.0,0.0,0.0
979.01,1538.0,0.0,0.0,0.0
979.46,1549.0,0.0,0.0,0.0
979.92,1524.0,0.0,0.0,0.0
980.37,1580.0,0.0,0.0,0.0
980.83,1639.0,0.0,0.0,0.0
981.28,1629.0,0.0,0.0,0.0
981.74,1644.0,0.0,0.0,0.0
982.19,1588.0,0.0,0.0,0.0
982.65,1587.0,0.0,0.0,0.0
983.1,1592.0,0.0,0.0,0.0
983.56,1580.0,0.0,0.0,0.0
984.01,1528.0,0.0,0.0,0.0
984.47,1536.0,0.0,0.0,0.0
984.92,1576.0,0.0,0.0,0.0
985.38,1553.0,0.0,0.0,0.0
985.83,1551.0,0.0,0.0,0.0
986.28,1581.0,0.0,0.0,0.0
986.74,1536.0,0.0,0.0,0.0
987.19,1532.0,0.0,0.0,0.0
987.65,1639.0,0.0,0.0,0.0
988.1,1574.0,0.0,0.0,0.0
988.55,1602.0,0.0,0.0,0.0
989.01,1581.0,0.0,0.0,0.0
989.46,1559.0,0.0,0.0,0.0
989.92,1596.0,0.0,0.0,0.0
990.37,1546.0,0.0,0.0,0.0
990.82,1580.0,0.0,0.0,0.0
991.28,1525.0,0.0,0.0,0.0
991.73,1583.0,0.0,0.0,0.0
992.18,1539.0,0.0,0.0,0.0
992.64,1481.0,0.0,0.0,0.0
993.09,1489.0,0.0,0.0,0.0
993.54,1523.0,0.0,0.0,0.0
994.0,1532.0,0.0,0.0,0.0
994.45,1527.0,0.0,0.0,0.0
994.9,1575.0,0.0,0.0,0.0
995.36,1583.0,0.0,0.0,0.0
995.81,1572.0,0.0,0.0,0.0
996.26,1600.0,0.0,0.0,0.0
996.71,1555.0,0.0,0.0,0.0
997.17,1548.0,0.0,0.0,0.0
997.62,1569.0,0.0,0.0,0.0
998.07,1583.0,0.0,0.0,0.0
998.53,1487.0,0.0,0.0,0.0
998.98,1466.0,0.0,0.0,0.0
999.43,1490.0,0.0,0.0,0.0
999.88,1596.0,0.0,0.0,0.0
1000.33,1558.0,0.0,0.0,0.0
1000.79,1575.0,0.0,0.0,0.0
1001.24,1573.0,0.0,0.0,0.0
1001.69,1620.0,0.0,0.0,0.0
1002.14,1555.0,0.0,0.0,0.0
1002.6,1576.0,0.0,0.0,0.0
1003.05,1592.0,0.0,0.0,0.0
1003.5,1523.0,0.0,0.0,0.0
1003.95,1553.0,0.0,0.0,0.0
1004.4,1559.0,0.0,0.0,0.0
1004.85,1519.0,0.0,0.0,0.0
1005.31,1566.0,0.0,0.0,0.0
1005.76,1602.0,0.0,0.0,0.0
1006.21,1603.0,0.0,0.0,0.0
1006.66,1556.0,0.0,0.0,0.0
1007.11,1583.0,0.0,0.0,0.0
1007.56,1558.0,0.0,0.0,0.0
1008.01,1533.0,0.0,0.0,0.0
1008.47,1564.0,0.0,0.0,0.0
1008.92,1604.0,0.0,0.0,0.0
1009.37,1521.0,0.0,0.0,0.0
1009.82,1498.0,0.0,0.0,0.0
1010.27,1562.0,0.0,0.0,0.0
1010.72,1618.0,0.0,0.0,0.0
1011.17,1706.0,0.0,0.0,0.0
1011.62,1612.0,0.0,0.0,0.0
1012.07,1567.0,0.0,0.0,0.0
1012.52,1567.0,0.0,0.0,0.0
1012.97,1599.0,0.0,0.0,0.0
1013.42,1586.0,0.0,0.0,0.0
1013.87,1515.0,0.0,0.0,0.0
1014.32,1534.0,0.0,0.0,0.0
1014.77,1529.0,0.0,0.0,0.0
1015.22,1558.0,0.0,0.0,0.0
1015.67,1566.0,0.0,0.0,0.0
1016.12,1530.0,0.0,0.0,0.0
1016.57,1555.0,0.0,0.0,0.0
1017.02,1574.0,0.0,0.0,0.0
1017.47,1516.0,0.0,0.0,0.0
1017.92,1544.0,0.0,0.0,0.0
1018.37,1597.0,0.0,0.0,0.0
1018.82,1572.0,0.0,0.0,0.0
1019.27,1541.0,0.0,0.0,0.0
1019.72,1604.0,0.0,0.0,0.0
1020.17,1561.0,0.0,0.0,0.0
1020.62,1539.0,0.0,0.0,0.0
1021.07,1607.0,0.0,0.0,0.0
1021.52,1551.0,0.0,0.0,0.0
1021.97,1518.0,0.0,0.0,0.0
1022.42,1558.0,0.0,0.0,0.0
1022.87,1531.0,0.0,0.0,0.0
1023.32,1548.0,0.0,0.0,0.0
1023.76,1526.0,0.0,0.0,0.0
1024.21,1549.0,0.0,0.0,0.0
1024.66,1536.0,0.0,0.0,0.0
1025.11,1507.0,0.0,0.0,0.0
1025.56,1543.0,0.0,0.0,0.0
1026.01,1566.0,0.0,0.0,0.0
1026.46,1598.0,0.0,0.0,0.0
1026.91,1586.0,0.0,0.0,0.0
1027.35,1595.0,0.0,0.0,0.0
1027.8,1565.0,0.0,0.0,0.0
1028.25,1548.0,0.0,0.0,0.0
1028.7,1578.0,0.0,0.0,0.0
1029.15,1534.0,0.0,0.0,0.0
1029.59,1560.0,0.0,0.0,0.0
1030.04,1560.0,0.0,0.0,0.0
1030.49,1456.0,0.0,0.0,0.0
1030.94,1492.0,0.0,0.0,0.0
1031.39,1555.0,0.0,0.0,0.0
1031.83,1599.0,0.0,0.0,0.0
1032.28,1515.0,0.0,0.0,0.0
1032.73,1554.0,0.0,0.0,0.0
1033.18,1624.0,0.0,0.0,0.0
1033.62,1580.0,0.0,0.0,0.0
1034.07,1570.0,0.0,0.0,0.0
1034.52,1581.0,0.0,0.0,0.0
1034.97,1576.0,0.0,0.0,0.0
1035.41,1580.0,0.0,0.0,0.0
1035.86,1547.0,0.0,0.0,0.0
1036.31,1572.0,0.0,0.0,0.0
1036.75,1563.0,0.0,0.0,0.0
1037.2,1563.0,0.0,0.0,0.0
1037.65,1563.0,0.0,0.0,0.0
1038.1,1513.0,0.0,0.0,0.0
1038.54,1483.0,0.0,0.0,0.0
1038.99,1498.0,0.0,0.0,0.0
1039.44,1527.0,0.0,0.0,0.0
1039.88,1519.0,0.0,0.0,0.0
1040.33,1541.0,0.0,0.0,0.0
1040.77,1557.0,0.0,0.0,0.0
1041.22,1512.0,0.0,0.0,0.0
1041.67,1575.0,0.0,0.0,0.0
1042.11,1614.0,0.0,0.0,0.0
1042.56,1596.0,0.0,0.0,0.0
1043.01,1529.0,0.0,0.0,0.0
1043.45,1526.0,0.0,0.0,0.0
1043.9,1548.0,0.0,0.0,0.0
1044.34,1524.0,0.0,0.0,0.0
1044.79,1564.0,0.0,0.0,0.0
1045.24,1548.0,0.0,0.0,0.0
1045.68,1550.0,0.0,0.0,0.0
1046.13,1534.0,0.0,0.0,0.0
1046.57,1575.0,0.0,0.0,0.0
1047.02,1605.0,0.0,0.0,0.0
1047.46,1623.0,0.0,0.0,0.0
1047.91,1563.0,0.0,0.0,0.0
1048.35,1536.0,0.0,0.0,0.0
1048.8,1555.0,0.0,0.0,0.0
1049.24,1547.0,0.0,0.0,0.0
1049.69,1567.0,0.0,0.0,0.0
1050.13,1560.0,0.0,0.0,0.0
1050.58,1572.0,0.0,0.0,0.0
1051.02,1571.0,0.0,0.0,0.0
1051.47,1553.0,0.0,0.0,0.0
1051.91,1589.0,0.0,0.0,0.0
1052.36,1555.0,0.0,0.0,0.0
1052.8,1503.0,0.0,0.0,0.0
1053.25,1503.0,0.0,0.0,0.0
1053.69,1535.0,0.0,0.0,0.0
1054.14,1574.0,0.0,0.0,0.0
1054.58,1526.0,0.0,0.0,0.0
1055.03,1595.0,0.0,0.0,0.0
1055.47,1509.0,0.0,0.0,0.0
1055.91,1525.0,0.0,0.0,0.0
1056.36,1601.0,0.0,0.0,0.0
1056.8,1528.0,0.0,0.0,0.0
1057.25,1560.0,0.0,0.0,0.0
1057.69,1594.0,0.0,0.0,0.0
1058.13,1545.0,0.0,0.0,0.0
1058.58,1573.0,0.0,0.0,0.0
1059.02,1557.0,0.0,0.0,0.0
1059.46,1521.0,0.0,0.0,0.0
1059.91,1577.0,0.0,0.0,0.0
1060.35,1575.0,0.0,0.0,0.0
1060.8,1559.0,0.0,0.0,0.0
1061.24,1594.0,0.0,0.0,0.0
1061.68,1554.0,0.0,0.0,0.0
1062.13,1545.0,0.0,0.0,0.0
1062.57,1532.0,0.0,0.0,0.0
1063.01,1527.0,0.0,0.0,0.0
1063.45,1593.0,0.0,0.0,0.0
1063.9,1571.0,0.0,0.0,0.0
1064.34,1560.0,0.0,0.0,0.0
1064.78,1553.0,0.0,0.0,0.0
1065.23,1550.0,0.0,0.0,0.0
1065.67,1526.0,0.0,0.0,0.0
1066.11,1550.0,0.0,0.0,0.0
1066.55,1559.0,0.0,0.0,0.0
1067.0,1522.0,0.0,0.0,0.0
1067.44,1535.0,0.0,0.0,0.0
1067.88,1581.0,0.0,0.0,0.0
1068.32,1615.0,0.0,0.0,0.0
1068.77,1599.0,0.0,0.0,0.0
1069.21,1570.0,0.0,0.0,0.0
1069.65,1548.0,0.0,0.0,0.0
1070.09,1589.0,0.0,0.0,0.0
1070.53,1562.0,0.0,0.0,0.0
1070.98,1565.0,0.0,0.0,0.0
1071.42,1598.0,0.0,0.0,0.0
1071.86,1559.0,0.0,0.0,0.0
1072.3,1573.0,0.0,0.0,0.0
1072.74,1562.0,0.0,0.0,0.0
1073.19,1560.0,0.0,0.0,0.0
1073.63,1572.0,0.0,0.0,0.0
1074.07,1527.0,0.0,0.0,0.0
1074.51,1560.0,0.0,0.0,0.0
1074.95,1566.0,0.0,0.0,0.0
1075.39,1497.0,0.0,0.0,0.0
1075.83,1525.0,0.0,0.0,0.0
1076.27,1560.0,0.0,0.0,0.0
1076.72,1573.0,0.0,0.0,0.0
1077.16,1527.0,0.0,0.0,0.0
1077.6,1521.0,0.0,0.0,0.0
1078.04,1543.0,0.0,0.0,0.0
1078.48,1558.0,0.0,0.0,0.0
1078.92,1596.0,0.0,0.0,0.0
1079.36,1490.0,0.0,0.0,0.0
1079.8,1526.0,0.0,0.0,0.0
1080.24,1567.0,0.0,0.0,0.0
1080.68,1521.0,0.0,0.0,0.0
1081.12,1576.0,0.0,0.0,0.0
1081.56,1561.0,0.0,0.0,0.0
1082.0,1569.0,0.0,0.0,0.0
1082.44,1651.0,0.0,0.0,0.0
1082.88,1631.0,0.0,0.0,0.0
1083.32,1512.0,0.0,0.0,0.0
1083.76,1553.0,0.0,0.0,0.0
1084.2,1523.0,0.0,0.0,0.0
1084.64,1568.0,0.0,0.0,0.0
1085.08,1607.0,0.0,0.0,0.0
1085.52,1555.0,0.0,0.0,0.0
1085.96,1573.0,0.0,0.0,0.0
1086.4,1605.0,0.0,0.0,0.0
1086.84,1616.0,0.0,0.0,0.0
1087.28,1591.0,0.0,0.0,0.0
1087.72,1560.0,0.0,0.0,0.0
1088.16,1536.0,0.0,0.0,0.0
1088.6,1544.0,0.0,0.0,0.0
1089.04,1529.0,0.0,0.0,0.0
1089.48,1537.0,0.0,0.0,0.0
1089.92,1503.0,0.0,0.0,0.0
1090.36,1554.0,0.0,0.0,0.0
1090.79,1563.0,0.0,0.0,0.0
1091.23,1572.0,0.0,0.0,0.0
1091.67,1568.0,0.0,0.0,0.0
1092.11,1515.0,0.0,0.0,0.0
1092.55,1524.0,0.0,0.0,0.0
1092.99,1546.0,0.0,0.0,0.0
1093.43,1537.0,0.0,0.0,0.0
1093.86,1545.0,0.0,0.0,0.0
1094.3,1547.0,0.0,0.0,0.0
1094.74,1570.0,0.0,0.0,0.0
1095.18,1604.0,0.0,0.0,0.0
1095.62,1549.0,0.0,0.0,0.0
1096.06,1530.0,0.0,0.0,0.0
1096.49,1542.0,0.0,0.0,0.0
1096.93,1602.0,0.0,0.0,0.0
1097.37,1583.0,0.0,0.0,0.0
1097.81,1593.0,0.0,0.0,0.0
