Name:: Spectrum 276;Timestamp:: 2025-Jul-03 18:03:24;Device:: Ossila Spectrometer (COM5);Colour:: (11: 217: 24);Integration Time (ms):: 150.0;Accumulation Number:: 1;Averaging Number:: 1;Delay Time:: 0;Trigger Mode:: Internal;Measurement Type:: Intensity;Comments:: 
Wavelength (nm),Intensity,Smoothed,Background,Reference
319.73,1439.0,0.0,0.0,0.0
320.26,1469.0,0.0,0.0,0.0
320.79,1507.0,0.0,0.0,0.0
321.32,1494.0,0.0,0.0,0.0
321.85,1498.0,0.0,0.0,0.0
322.38,1501.0,0.0,0.0,0.0
322.91,1502.0,0.0,0.0,0.0
323.44,1538.0,0.0,0.0,0.0
323.97,1537.0,0.0,0.0,0.0
324.5,1517.0,0.0,0.0,0.0
325.03,1553.0,0.0,0.0,0.0
325.56,1528.0,0.0,0.0,0.0
326.09,1482.0,0.0,0.0,0.0
326.62,1520.0,0.0,0.0,0.0
327.15,1490.0,0.0,0.0,0.0
327.68,1441.0,0.0,0.0,0.0
328.21,1499.0,0.0,0.0,0.0
328.74,1517.0,0.0,0.0,0.0
329.27,1467.0,0.0,0.0,0.0
329.8,1529.0,0.0,0.0,0.0
330.32,1509.0,0.0,0.0,0.0
330.85,1523.0,0.0,0.0,0.0
331.38,1529.0,0.0,0.0,0.0
331.91,1573.0,0.0,0.0,0.0
332.44,1506.0,0.0,0.0,0.0
332.97,1490.0,0.0,0.0,0.0
333.5,1500.0,0.0,0.0,0.0
334.03,1574.0,0.0,0.0,0.0
334.56,1559.0,0.0,0.0,0.0
335.09,1509.0,0.0,0.0,0.0
335.62,1512.0,0.0,0.0,0.0
336.15,1486.0,0.0,0.0,0.0
336.67,1479.0,0.0,0.0,0.0
337.2,1538.0,0.0,0.0,0.0
337.73,1518.0,0.0,0.0,0.0
338.26,1536.0,0.0,0.0,0.0
338.79,1494.0,0.0,0.0,0.0
339.32,1479.0,0.0,0.0,0.0
339.85,1449.0,0.0,0.0,0.0
340.38,1479.0,0.0,0.0,0.0
340.9,1546.0,0.0,0.0,0.0
341.43,1542.0,0.0,0.0,0.0
341.96,1540.0,0.0,0.0,0.0
342.49,1547.0,0.0,0.0,0.0
343.02,1513.0,0.0,0.0,0.0
343.55,1453.0,0.0,0.0,0.0
344.07,1496.0,0.0,0.0,0.0
344.6,1487.0,0.0,0.0,0.0
345.13,1478.0,0.0,0.0,0.0
345.66,1510.0,0.0,0.0,0.0
346.19,1587.0,0.0,0.0,0.0
346.71,1552.0,0.0,0.0,0.0
347.24,1507.0,0.0,0.0,0.0
347.77,1472.0,0.0,0.0,0.0
348.3,1518.0,0.0,0.0,0.0
348.83,1529.0,0.0,0.0,0.0
349.35,1491.0,0.0,0.0,0.0
349.88,1536.0,0.0,0.0,0.0
350.41,1569.0,0.0,0.0,0.0
350.94,1469.0,0.0,0.0,0.0
351.46,1497.0,0.0,0.0,0.0
351.99,1468.0,0.0,0.0,0.0
352.52,1494.0,0.0,0.0,0.0
353.05,1530.0,0.0,0.0,0.0
353.57,1534.0,0.0,0.0,0.0
354.1,1492.0,0.0,0.0,0.0
354.63,1473.0,0.0,0.0,0.0
355.16,1526.0,0.0,0.0,0.0
355.68,1474.0,0.0,0.0,0.0
356.21,1478.0,0.0,0.0,0.0
356.74,1500.0,0.0,0.0,0.0
357.26,1523.0,0.0,0.0,0.0
357.79,1477.0,0.0,0.0,0.0
358.32,1507.0,0.0,0.0,0.0
358.84,1516.0,0.0,0.0,0.0
359.37,1476.0,0.0,0.0,0.0
359.9,1477.0,0.0,0.0,0.0
360.42,1494.0,0.0,0.0,0.0
360.95,1497.0,0.0,0.0,0.0
361.48,1533.0,0.0,0.0,0.0
362.0,1507.0,0.0,0.0,0.0
362.53,1519.0,0.0,0.0,0.0
363.06,1525.0,0.0,0.0,0.0
363.58,1563.0,0.0,0.0,0.0
364.11,1602.0,0.0,0.0,0.0
364.64,1553.0,0.0,0.0,0.0
365.16,1494.0,0.0,0.0,0.0
365.69,1505.0,0.0,0.0,0.0
366.21,1548.0,0.0,0.0,0.0
366.74,1545.0,0.0,0.0,0.0
367.27,1500.0,0.0,0.0,0.0
367.79,1531.0,0.0,0.0,0.0
368.32,1465.0,0.0,0.0,0.0
368.84,1441.0,0.0,0.0,0.0
369.37,1485.0,0.0,0.0,0.0
369.9,1493.0,0.0,0.0,0.0
370.42,1468.0,0.0,0.0,0.0
370.95,1499.0,0.0,0.0,0.0
371.47,1557.0,0.0,0.0,0.0
372.0,1573.0,0.0,0.0,0.0
372.52,1545.0,0.0,0.0,0.0
373.05,1557.0,0.0,0.0,0.0
373.58,1503.0,0.0,0.0,0.0
374.1,1535.0,0.0,0.0,0.0
374.63,1506.0,0.0,0.0,0.0
375.15,1464.0,0.0,0.0,0.0
375.68,1452.0,0.0,0.0,0.0
376.2,1504.0,0.0,0.0,0.0
376.73,1533.0,0.0,0.0,0.0
377.25,1511.0,0.0,0.0,0.0
377.78,1505.0,0.0,0.0,0.0
378.3,1525.0,0.0,0.0,0.0
378.83,1504.0,0.0,0.0,0.0
379.35,1551.0,0.0,0.0,0.0
379.88,1575.0,0.0,0.0,0.0
380.4,1581.0,0.0,0.0,0.0
380.93,1525.0,0.0,0.0,0.0
381.45,1499.0,0.0,0.0,0.0
381.98,1537.0,0.0,0.0,0.0
382.5,1509.0,0.0,0.0,0.0
383.02,1461.0,0.0,0.0,0.0
383.55,1491.0,0.0,0.0,0.0
384.07,1490.0,0.0,0.0,0.0
384.6,1461.0,0.0,0.0,0.0
385.12,1454.0,0.0,0.0,0.0
385.65,1479.0,0.0,0.0,0.0
386.17,1486.0,0.0,0.0,0.0
386.7,1534.0,0.0,0.0,0.0
387.22,1571.0,0.0,0.0,0.0
387.74,1505.0,0.0,0.0,0.0
388.27,1517.0,0.0,0.0,0.0
388.79,1572.0,0.0,0.0,0.0
389.32,1588.0,0.0,0.0,0.0
389.84,1535.0,0.0,0.0,0.0
390.36,1551.0,0.0,0.0,0.0
390.89,1558.0,0.0,0.0,0.0
391.41,1512.0,0.0,0.0,0.0
391.93,1475.0,0.0,0.0,0.0
392.46,1501.0,0.0,0.0,0.0
392.98,1475.0,0.0,0.0,0.0
393.51,1526.0,0.0,0.0,0.0
394.03,1548.0,0.0,0.0,0.0
394.55,1552.0,0.0,0.0,0.0
395.08,1551.0,0.0,0.0,0.0
395.6,1523.0,0.0,0.0,0.0
396.12,1532.0,0.0,0.0,0.0
396.65,1495.0,0.0,0.0,0.0
397.17,1508.0,0.0,0.0,0.0
397.69,1563.0,0.0,0.0,0.0
398.21,1515.0,0.0,0.0,0.0
398.74,1547.0,0.0,0.0,0.0
399.26,1536.0,0.0,0.0,0.0
399.78,1553.0,0.0,0.0,0.0
400.31,1564.0,0.0,0.0,0.0
400.83,1512.0,0.0,0.0,0.0
401.35,1524.0,0.0,0.0,0.0
401.88,1440.0,0.0,0.0,0.0
402.4,1544.0,0.0,0.0,0.0
402.92,1543.0,0.0,0.0,0.0
403.44,1501.0,0.0,0.0,0.0
403.97,1471.0,0.0,0.0,0.0
404.49,1573.0,0.0,0.0,0.0
405.01,1574.0,0.0,0.0,0.0
405.53,1557.0,0.0,0.0,0.0
406.06,1455.0,0.0,0.0,0.0
406.58,1539.0,0.0,0.0,0.0
407.1,1523.0,0.0,0.0,0.0
407.62,1552.0,0.0,0.0,0.0
408.14,1608.0,0.0,0.0,0.0
408.67,1554.0,0.0,0.0,0.0
409.19,1536.0,0.0,0.0,0.0
409.71,1510.0,0.0,0.0,0.0
410.23,1455.0,0.0,0.0,0.0
410.75,1482.0,0.0,0.0,0.0
411.28,1542.0,0.0,0.0,0.0
411.8,1547.0,0.0,0.0,0.0
412.32,1484.0,0.0,0.0,0.0
412.84,1483.0,0.0,0.0,0.0
413.36,1493.0,0.0,0.0,0.0
413.88,1550.0,0.0,0.0,0.0
414.41,1549.0,0.0,0.0,0.0
414.93,1561.0,0.0,0.0,0.0
415.45,1490.0,0.0,0.0,0.0
415.97,1500.0,0.0,0.0,0.0
416.49,1495.0,0.0,0.0,0.0
417.01,1494.0,0.0,0.0,0.0
417.53,1544.0,0.0,0.0,0.0
418.05,1528.0,0.0,0.0,0.0
418.58,1540.0,0.0,0.0,0.0
419.1,1454.0,0.0,0.0,0.0
419.62,1501.0,0.0,0.0,0.0
420.14,1527.0,0.0,0.0,0.0
420.66,1489.0,0.0,0.0,0.0
421.18,1475.0,0.0,0.0,0.0
421.7,1535.0,0.0,0.0,0.0
422.22,1550.0,0.0,0.0,0.0
422.74,1497.0,0.0,0.0,0.0
423.26,1524.0,0.0,0.0,0.0
423.78,1571.0,0.0,0.0,0.0
424.3,1567.0,0.0,0.0,0.0
424.83,1525.0,0.0,0.0,0.0
425.35,1501.0,0.0,0.0,0.0
425.87,1515.0,0.0,0.0,0.0
426.39,1467.0,0.0,0.0,0.0
426.91,1503.0,0.0,0.0,0.0
427.43,1528.0,0.0,0.0,0.0
427.95,1541.0,0.0,0.0,0.0
428.47,1546.0,0.0,0.0,0.0
428.99,1478.0,0.0,0.0,0.0
429.51,1523.0,0.0,0.0,0.0
430.03,1532.0,0.0,0.0,0.0
430.55,1583.0,0.0,0.0,0.0
431.07,1453.0,0.0,0.0,0.0
431.59,1472.0,0.0,0.0,0.0
432.11,1494.0,0.0,0.0,0.0
432.63,1491.0,0.0,0.0,0.0
433.15,1483.0,0.0,0.0,0.0
433.67,1506.0,0.0,0.0,0.0
434.19,1533.0,0.0,0.0,0.0
434.71,1565.0,0.0,0.0,0.0
435.22,1493.0,0.0,0.0,0.0
435.74,1564.0,0.0,0.0,0.0
436.26,1532.0,0.0,0.0,0.0
436.78,1492.0,0.0,0.0,0.0
437.3,1563.0,0.0,0.0,0.0
437.82,1553.0,0.0,0.0,0.0
438.34,1522.0,0.0,0.0,0.0
438.86,1498.0,0.0,0.0,0.0
439.38,1475.0,0.0,0.0,0.0
439.9,1542.0,0.0,0.0,0.0
440.42,1561.0,0.0,0.0,0.0
440.94,1537.0,0.0,0.0,0.0
441.45,1502.0,0.0,0.0,0.0
441.97,1532.0,0.0,0.0,0.0
442.49,1524.0,0.0,0.0,0.0
443.01,1447.0,0.0,0.0,0.0
443.53,1454.0,0.0,0.0,0.0
444.05,1519.0,0.0,0.0,0.0
444.57,1544.0,0.0,0.0,0.0
445.09,1477.0,0.0,0.0,0.0
445.6,1478.0,0.0,0.0,0.0
446.12,1511.0,0.0,0.0,0.0
446.64,1519.0,0.0,0.0,0.0
447.16,1539.0,0.0,0.0,0.0
447.68,1539.0,0.0,0.0,0.0
448.2,1532.0,0.0,0.0,0.0
448.71,1540.0,0.0,0.0,0.0
449.23,1560.0,0.0,0.0,0.0
449.75,1510.0,0.0,0.0,0.0
450.27,1513.0,0.0,0.0,0.0
450.79,1519.0,0.0,0.0,0.0
451.3,1548.0,0.0,0.0,0.0
451.82,1563.0,0.0,0.0,0.0
452.34,1478.0,0.0,0.0,0.0
452.86,1514.0,0.0,0.0,0.0
453.37,1552.0,0.0,0.0,0.0
453.89,1567.0,0.0,0.0,0.0
454.41,1563.0,0.0,0.0,0.0
454.93,1495.0,0.0,0.0,0.0
455.44,1514.0,0.0,0.0,0.0
455.96,1537.0,0.0,0.0,0.0
456.48,1544.0,0.0,0.0,0.0
457.0,1509.0,0.0,0.0,0.0
457.51,1448.0,0.0,0.0,0.0
458.03,1528.0,0.0,0.0,0.0
458.55,1562.0,0.0,0.0,0.0
459.07,1557.0,0.0,0.0,0.0
459.58,1543.0,0.0,0.0,0.0
460.1,1529.0,0.0,0.0,0.0
460.62,1528.0,0.0,0.0,0.0
461.13,1522.0,0.0,0.0,0.0
461.65,1513.0,0.0,0.0,0.0
462.17,1510.0,0.0,0.0,0.0
462.68,1499.0,0.0,0.0,0.0
463.2,1519.0,0.0,0.0,0.0
463.72,1549.0,0.0,0.0,0.0
464.23,1499.0,0.0,0.0,0.0
464.75,1501.0,0.0,0.0,0.0
465.27,1540.0,0.0,0.0,0.0
465.78,1433.0,0.0,0.0,0.0
466.3,1461.0,0.0,0.0,0.0
466.82,1480.0,0.0,0.0,0.0
467.33,1488.0,0.0,0.0,0.0
467.85,1532.0,0.0,0.0,0.0
468.36,1551.0,0.0,0.0,0.0
468.88,1538.0,0.0,0.0,0.0
469.4,1532.0,0.0,0.0,0.0
469.91,1515.0,0.0,0.0,0.0
470.43,1494.0,0.0,0.0,0.0
470.95,1506.0,0.0,0.0,0.0
471.46,1465.0,0.0,0.0,0.0
471.98,1468.0,0.0,0.0,0.0
472.49,1466.0,0.0,0.0,0.0
473.01,1544.0,0.0,0.0,0.0
473.52,1531.0,0.0,0.0,0.0
474.04,1478.0,0.0,0.0,0.0
474.56,1563.0,0.0,0.0,0.0
475.07,1537.0,0.0,0.0,0.0
475.59,1486.0,0.0,0.0,0.0
476.1,1555.0,0.0,0.0,0.0
476.62,1599.0,0.0,0.0,0.0
477.13,1578.0,0.0,0.0,0.0
477.65,1490.0,0.0,0.0,0.0
478.16,1463.0,0.0,0.0,0.0
478.68,1507.0,0.0,0.0,0.0
479.19,1534.0,0.0,0.0,0.0
479.71,1507.0,0.0,0.0,0.0
480.22,1486.0,0.0,0.0,0.0
480.74,1483.0,0.0,0.0,0.0
481.25,1547.0,0.0,0.0,0.0
481.77,1521.0,0.0,0.0,0.0
482.28,1466.0,0.0,0.0,0.0
482.8,1463.0,0.0,0.0,0.0
483.31,1514.0,0.0,0.0,0.0
483.83,1500.0,0.0,0.0,0.0
484.34,1471.0,0.0,0.0,0.0
484.86,1514.0,0.0,0.0,0.0
485.37,1494.0,0.0,0.0,0.0
485.88,1503.0,0.0,0.0,0.0
486.4,1505.0,0.0,0.0,0.0
486.91,1494.0,0.0,0.0,0.0
487.43,1571.0,0.0,0.0,0.0
487.94,1482.0,0.0,0.0,0.0
488.46,1483.0,0.0,0.0,0.0
488.97,1502.0,0.0,0.0,0.0
489.48,1533.0,0.0,0.0,0.0
490.0,1503.0,0.0,0.0,0.0
490.51,1513.0,0.0,0.0,0.0
491.03,1524.0,0.0,0.0,0.0
491.54,1541.0,0.0,0.0,0.0
492.05,1507.0,0.0,0.0,0.0
492.57,1449.0,0.0,0.0,0.0
493.08,1580.0,0.0,0.0,0.0
493.59,1540.0,0.0,0.0,0.0
494.11,1487.0,0.0,0.0,0.0
494.62,1509.0,0.0,0.0,0.0
495.13,1503.0,0.0,0.0,0.0
495.65,1480.0,0.0,0.0,0.0
496.16,1499.0,0.0,0.0,0.0
496.67,1542.0,0.0,0.0,0.0
497.19,1543.0,0.0,0.0,0.0
497.7,1480.0,0.0,0.0,0.0
498.21,1531.0,0.0,0.0,0.0
498.73,1538.0,0.0,0.0,0.0
499.24,1545.0,0.0,0.0,0.0
499.75,1489.0,0.0,0.0,0.0
500.27,1535.0,0.0,0.0,0.0
500.78,1563.0,0.0,0.0,0.0
501.29,1508.0,0.0,0.0,0.0
501.81,1551.0,0.0,0.0,0.0
502.32,1575.0,0.0,0.0,0.0
502.83,1550.0,0.0,0.0,0.0
503.34,1510.0,0.0,0.0,0.0
503.86,1510.0,0.0,0.0,0.0
504.37,1518.0,0.0,0.0,0.0
504.88,1499.0,0.0,0.0,0.0
505.39,1567.0,0.0,0.0,0.0
505.91,1519.0,0.0,0.0,0.0
506.42,1477.0,0.0,0.0,0.0
506.93,1522.0,0.0,0.0,0.0
507.44,1542.0,0.0,0.0,0.0
507.95,1472.0,0.0,0.0,0.0
508.47,1510.0,0.0,0.0,0.0
508.98,1527.0,0.0,0.0,0.0
509.49,1537.0,0.0,0.0,0.0
510.0,1514.0,0.0,0.0,0.0
510.51,1519.0,0.0,0.0,0.0
511.03,1510.0,0.0,0.0,0.0
511.54,1551.0,0.0,0.0,0.0
512.05,1535.0,0.0,0.0,0.0
512.56,1513.0,0.0,0.0,0.0
513.07,1492.0,0.0,0.0,0.0
513.58,1511.0,0.0,0.0,0.0
514.1,1537.0,0.0,0.0,0.0
514.61,1541.0,0.0,0.0,0.0
515.12,1544.0,0.0,0.0,0.0
515.63,1539.0,0.0,0.0,0.0
516.14,1542.0,0.0,0.0,0.0
516.65,1560.0,0.0,0.0,0.0
517.16,1527.0,0.0,0.0,0.0
517.68,1501.0,0.0,0.0,0.0
518.19,1478.0,0.0,0.0,0.0
518.7,1472.0,0.0,0.0,0.0
519.21,1524.0,0.0,0.0,0.0
519.72,1541.0,0.0,0.0,0.0
520.23,1516.0,0.0,0.0,0.0
520.74,1542.0,0.0,0.0,0.0
521.25,1544.0,0.0,0.0,0.0
521.76,1497.0,0.0,0.0,0.0
522.27,1510.0,0.0,0.0,0.0
522.78,1534.0,0.0,0.0,0.0
523.29,1513.0,0.0,0.0,0.0
523.8,1494.0,0.0,0.0,0.0
524.32,1488.0,0.0,0.0,0.0
524.83,1446.0,0.0,0.0,0.0
525.34,1469.0,0.0,0.0,0.0
525.85,1522.0,0.0,0.0,0.0
526.36,1503.0,0.0,0.0,0.0
526.87,1512.0,0.0,0.0,0.0
527.38,1533.0,0.0,0.0,0.0
527.89,1500.0,0.0,0.0,0.0
528.4,1511.0,0.0,0.0,0.0
528.91,1488.0,0.0,0.0,0.0
529.42,1513.0,0.0,0.0,0.0
529.93,1549.0,0.0,0.0,0.0
530.44,1512.0,0.0,0.0,0.0
530.95,1507.0,0.0,0.0,0.0
531.46,1492.0,0.0,0.0,0.0
531.97,1522.0,0.0,0.0,0.0
532.48,1463.0,0.0,0.0,0.0
532.99,1439.0,0.0,0.0,0.0
533.49,1482.0,0.0,0.0,0.0
534.0,1523.0,0.0,0.0,0.0
534.51,1595.0,0.0,0.0,0.0
535.02,1492.0,0.0,0.0,0.0
535.53,1488.0,0.0,0.0,0.0
536.04,1472.0,0.0,0.0,0.0
536.55,1518.0,0.0,0.0,0.0
537.06,1531.0,0.0,0.0,0.0
537.57,1512.0,0.0,0.0,0.0
538.08,1564.0,0.0,0.0,0.0
538.59,1544.0,0.0,0.0,0.0
539.1,1523.0,0.0,0.0,0.0
539.6,1572.0,0.0,0.0,0.0
540.11,1549.0,0.0,0.0,0.0
540.62,1549.0,0.0,0.0,0.0
541.13,1537.0,0.0,0.0,0.0
541.64,1481.0,0.0,0.0,0.0
542.15,1447.0,0.0,0.0,0.0
542.66,1465.0,0.0,0.0,0.0
543.16,1500.0,0.0,0.0,0.0
543.67,1543.0,0.0,0.0,0.0
544.18,1518.0,0.0,0.0,0.0
544.69,1517.0,0.0,0.0,0.0
545.2,1519.0,0.0,0.0,0.0
545.71,1520.0,0.0,0.0,0.0
546.21,1503.0,0.0,0.0,0.0
546.72,1512.0,0.0,0.0,0.0
547.23,1557.0,0.0,0.0,0.0
547.74,1536.0,0.0,0.0,0.0
548.25,1495.0,0.0,0.0,0.0
548.75,1560.0,0.0,0.0,0.0
549.26,1572.0,0.0,0.0,0.0
549.77,1552.0,0.0,0.0,0.0
550.28,1474.0,0.0,0.0,0.0
550.79,1551.0,0.0,0.0,0.0
551.29,1534.0,0.0,0.0,0.0
551.8,1479.0,0.0,0.0,0.0
552.31,1544.0,0.0,0.0,0.0
552.82,1573.0,0.0,0.0,0.0
553.32,1527.0,0.0,0.0,0.0
553.83,1505.0,0.0,0.0,0.0
554.34,1557.0,0.0,0.0,0.0
554.85,1526.0,0.0,0.0,0.0
555.35,1523.0,0.0,0.0,0.0
555.86,1531.0,0.0,0.0,0.0
556.37,1514.0,0.0,0.0,0.0
556.87,1511.0,0.0,0.0,0.0
557.38,1510.0,0.0,0.0,0.0
557.89,1508.0,0.0,0.0,0.0
558.39,1457.0,0.0,0.0,0.0
558.9,1453.0,0.0,0.0,0.0
559.41,1515.0,0.0,0.0,0.0
559.91,1483.0,0.0,0.0,0.0
560.42,1482.0,0.0,0.0,0.0
560.93,1505.0,0.0,0.0,0.0
561.43,1512.0,0.0,0.0,0.0
561.94,1503.0,0.0,0.0,0.0
562.45,1490.0,0.0,0.0,0.0
562.95,1465.0,0.0,0.0,0.0
563.46,1492.0,0.0,0.0,0.0
563.97,1513.0,0.0,0.0,0.0
564.47,1528.0,0.0,0.0,0.0
564.98,1460.0,0.0,0.0,0.0
565.48,1482.0,0.0,0.0,0.0
565.99,1549.0,0.0,0.0,0.0
566.5,1549.0,0.0,0.0,0.0
567.0,1543.0,0.0,0.0,0.0
567.51,1476.0,0.0,0.0,0.0
568.01,1499.0,0.0,0.0,0.0
568.52,1536.0,0.0,0.0,0.0
569.03,1498.0,0.0,0.0,0.0
569.53,1483.0,0.0,0.0,0.0
570.04,1493.0,0.0,0.0,0.0
570.54,1503.0,0.0,0.0,0.0
571.05,1510.0,0.0,0.0,0.0
571.55,1509.0,0.0,0.0,0.0
572.06,1451.0,0.0,0.0,0.0
572.56,1501.0,0.0,0.0,0.0
573.07,1579.0,0.0,0.0,0.0
573.58,1583.0,0.0,0.0,0.0
574.08,1510.0,0.0,0.0,0.0
574.59,1495.0,0.0,0.0,0.0
575.09,1526.0,0.0,0.0,0.0
575.6,1519.0,0.0,0.0,0.0
576.1,1567.0,0.0,0.0,0.0
576.61,1544.0,0.0,0.0,0.0
577.11,1528.0,0.0,0.0,0.0
577.62,1500.0,0.0,0.0,0.0
578.12,1506.0,0.0,0.0,0.0
578.62,1486.0,0.0,0.0,0.0
579.13,1485.0,0.0,0.0,0.0
579.63,1485.0,0.0,0.0,0.0
580.14,1547.0,0.0,0.0,0.0
580.64,1510.0,0.0,0.0,0.0
581.15,1480.0,0.0,0.0,0.0
581.65,1531.0,0.0,0.0,0.0
582.16,1478.0,0.0,0.0,0.0
582.66,1481.0,0.0,0.0,0.0
583.16,1547.0,0.0,0.0,0.0
583.67,1534.0,0.0,0.0,0.0
584.17,1509.0,0.0,0.0,0.0
584.68,1518.0,0.0,0.0,0.0
585.18,1491.0,0.0,0.0,0.0
585.68,1519.0,0.0,0.0,0.0
586.19,1570.0,0.0,0.0,0.0
586.69,1530.0,0.0,0.0,0.0
587.2,1495.0,0.0,0.0,0.0
587.7,1444.0,0.0,0.0,0.0
588.2,1511.0,0.0,0.0,0.0
588.71,1525.0,0.0,0.0,0.0
589.21,1514.0,0.0,0.0,0.0
589.71,1533.0,0.0,0.0,0.0
590.22,1527.0,0.0,0.0,0.0
590.72,1488.0,0.0,0.0,0.0
591.22,1523.0,0.0,0.0,0.0
591.73,1540.0,0.0,0.0,0.0
592.23,1520.0,0.0,0.0,0.0
592.73,1528.0,0.0,0.0,0.0
593.24,1520.0,0.0,0.0,0.0
593.74,1503.0,0.0,0.0,0.0
594.24,1451.0,0.0,0.0,0.0
594.75,1469.0,0.0,0.0,0.0
595.25,1475.0,0.0,0.0,0.0
595.75,1524.0,0.0,0.0,0.0
596.25,1500.0,0.0,0.0,0.0
596.76,1541.0,0.0,0.0,0.0
597.26,1529.0,0.0,0.0,0.0
597.76,1514.0,0.0,0.0,0.0
598.27,1561.0,0.0,0.0,0.0
598.77,1472.0,0.0,0.0,0.0
599.27,1496.0,0.0,0.0,0.0
599.77,1534.0,0.0,0.0,0.0
600.28,1508.0,0.0,0.0,0.0
600.78,1499.0,0.0,0.0,0.0
601.28,1486.0,0.0,0.0,0.0
601.78,1475.0,0.0,0.0,0.0
602.28,1486.0,0.0,0.0,0.0
602.79,1490.0,0.0,0.0,0.0
603.29,1499.0,0.0,0.0,0.0
603.79,1490.0,0.0,0.0,0.0
604.29,1549.0,0.0,0.0,0.0
604.79,1533.0,0.0,0.0,0.0
605.3,1581.0,0.0,0.0,0.0
605.8,1575.0,0.0,0.0,0.0
606.3,1499.0,0.0,0.0,0.0
606.8,1483.0,0.0,0.0,0.0
607.3,1515.0,0.0,0.0,0.0
607.8,1533.0,0.0,0.0,0.0
608.31,1551.0,0.0,0.0,0.0
608.81,1549.0,0.0,0.0,0.0
609.31,1556.0,0.0,0.0,0.0
609.81,1542.0,0.0,0.0,0.0
610.31,1505.0,0.0,0.0,0.0
610.81,1498.0,0.0,0.0,0.0
611.31,1507.0,0.0,0.0,0.0
611.81,1528.0,0.0,0.0,0.0
612.32,1453.0,0.0,0.0,0.0
612.82,1523.0,0.0,0.0,0.0
613.32,1532.0,0.0,0.0,0.0
613.82,1493.0,0.0,0.0,0.0
614.32,1532.0,0.0,0.0,0.0
614.82,1536.0,0.0,0.0,0.0
615.32,1530.0,0.0,0.0,0.0
615.82,1468.0,0.0,0.0,0.0
616.32,1491.0,0.0,0.0,0.0
616.82,1518.0,0.0,0.0,0.0
617.32,1538.0,0.0,0.0,0.0
617.82,1548.0,0.0,0.0,0.0
618.32,1591.0,0.0,0.0,0.0
618.82,1510.0,0.0,0.0,0.0
619.32,1582.0,0.0,0.0,0.0
619.82,1507.0,0.0,0.0,0.0
620.32,1495.0,0.0,0.0,0.0
620.82,1555.0,0.0,0.0,0.0
621.32,1516.0,0.0,0.0,0.0
621.82,1504.0,0.0,0.0,0.0
622.32,1502.0,0.0,0.0,0.0
622.82,1507.0,0.0,0.0,0.0
623.32,1503.0,0.0,0.0,0.0
623.82,1509.0,0.0,0.0,0.0
624.32,1490.0,0.0,0.0,0.0
624.82,1513.0,0.0,0.0,0.0
625.32,1495.0,0.0,0.0,0.0
625.82,1516.0,0.0,0.0,0.0
626.32,1541.0,0.0,0.0,0.0
626.82,1504.0,0.0,0.0,0.0
627.32,1545.0,0.0,0.0,0.0
627.82,1528.0,0.0,0.0,0.0
628.32,1507.0,0.0,0.0,0.0
628.82,1507.0,0.0,0.0,0.0
629.32,1491.0,0.0,0.0,0.0
629.82,1509.0,0.0,0.0,0.0
630.32,1539.0,0.0,0.0,0.0
630.81,1576.0,0.0,0.0,0.0
631.31,1547.0,0.0,0.0,0.0
631.81,1498.0,0.0,0.0,0.0
632.31,1542.0,0.0,0.0,0.0
632.81,1573.0,0.0,0.0,0.0
633.31,1543.0,0.0,0.0,0.0
633.81,1573.0,0.0,0.0,0.0
634.31,1575.0,0.0,0.0,0.0
634.8,1553.0,0.0,0.0,0.0
635.3,1544.0,0.0,0.0,0.0
635.8,1534.0,0.0,0.0,0.0
636.3,1551.0,0.0,0.0,0.0
636.8,1532.0,0.0,0.0,0.0
637.3,1520.0,0.0,0.0,0.0
637.79,1508.0,0.0,0.0,0.0
638.29,1514.0,0.0,0.0,0.0
638.79,1512.0,0.0,0.0,0.0
639.29,1604.0,0.0,0.0,0.0
639.79,1599.0,0.0,0.0,0.0
640.28,1510.0,0.0,0.0,0.0
640.78,1470.0,0.0,0.0,0.0
641.28,1503.0,0.0,0.0,0.0
641.78,1489.0,0.0,0.0,0.0
642.28,1509.0,0.0,0.0,0.0
642.77,1540.0,0.0,0.0,0.0
643.27,1519.0,0.0,0.0,0.0
643.77,1524.0,0.0,0.0,0.0
644.27,1544.0,0.0,0.0,0.0
644.76,1498.0,0.0,0.0,0.0
645.26,1496.0,0.0,0.0,0.0
645.76,1534.0,0.0,0.0,0.0
646.25,1608.0,0.0,0.0,0.0
646.75,1533.0,0.0,0.0,0.0
647.25,1556.0,0.0,0.0,0.0
647.75,1542.0,0.0,0.0,0.0
648.24,1533.0,0.0,0.0,0.0
648.74,1508.0,0.0,0.0,0.0
649.24,1551.0,0.0,0.0,0.0
649.73,1536.0,0.0,0.0,0.0
650.23,1553.0,0.0,0.0,0.0
650.73,1494.0,0.0,0.0,0.0
651.22,1494.0,0.0,0.0,0.0
651.72,1521.0,0.0,0.0,0.0
652.22,1548.0,0.0,0.0,0.0
652.71,1578.0,0.0,0.0,0.0
653.21,1575.0,0.0,0.0,0.0
653.71,1560.0,0.0,0.0,0.0
654.2,1548.0,0.0,0.0,0.0
654.7,1536.0,0.0,0.0,0.0
655.2,1542.0,0.0,0.0,0.0
655.69,1530.0,0.0,0.0,0.0
656.19,1527.0,0.0,0.0,0.0
656.68,1531.0,0.0,0.0,0.0
657.18,1534.0,0.0,0.0,0.0
657.68,1509.0,0.0,0.0,0.0
658.17,1532.0,0.0,0.0,0.0
658.67,1488.0,0.0,0.0,0.0
659.16,1472.0,0.0,0.0,0.0
659.66,1456.0,0.0,0.0,0.0
660.15,1528.0,0.0,0.0,0.0
660.65,1497.0,0.0,0.0,0.0
661.15,1512.0,0.0,0.0,0.0
661.64,1580.0,0.0,0.0,0.0
662.14,1511.0,0.0,0.0,0.0
662.63,1583.0,0.0,0.0,0.0
663.13,1541.0,0.0,0.0,0.0
663.62,1486.0,0.0,0.0,0.0
664.12,1556.0,0.0,0.0,0.0
664.61,1575.0,0.0,0.0,0.0
665.11,1507.0,0.0,0.0,0.0
665.6,1580.0,0.0,0.0,0.0
666.1,1568.0,0.0,0.0,0.0
666.59,1569.0,0.0,0.0,0.0
667.09,1511.0,0.0,0.0,0.0
667.58,1516.0,0.0,0.0,0.0
668.08,1506.0,0.0,0.0,0.0
668.57,1559.0,0.0,0.0,0.0
669.07,1497.0,0.0,0.0,0.0
669.56,1451.0,0.0,0.0,0.0
670.06,1510.0,0.0,0.0,0.0
670.55,1512.0,0.0,0.0,0.0
671.05,1530.0,0.0,0.0,0.0
671.54,1522.0,0.0,0.0,0.0
672.03,1501.0,0.0,0.0,0.0
672.53,1518.0,0.0,0.0,0.0
673.02,1506.0,0.0,0.0,0.0
673.52,1499.0,0.0,0.0,0.0
674.01,1519.0,0.0,0.0,0.0
674.5,1544.0,0.0,0.0,0.0
675.0,1518.0,0.0,0.0,0.0
675.49,1496.0,0.0,0.0,0.0
675.99,1550.0,0.0,0.0,0.0
676.48,1499.0,0.0,0.0,0.0
676.97,1501.0,0.0,0.0,0.0
677.47,1507.0,0.0,0.0,0.0
677.96,1529.0,0.0,0.0,0.0
678.45,1534.0,0.0,0.0,0.0
678.95,1531.0,0.0,0.0,0.0
679.44,1560.0,0.0,0.0,0.0
679.94,1549.0,0.0,0.0,0.0
680.43,1516.0,0.0,0.0,0.0
680.92,1495.0,0.0,0.0,0.0
681.42,1456.0,0.0,0.0,0.0
681.91,1481.0,0.0,0.0,0.0
682.4,1487.0,0.0,0.0,0.0
682.89,1507.0,0.0,0.0,0.0
683.39,1477.0,0.0,0.0,0.0
683.88,1530.0,0.0,0.0,0.0
684.37,1564.0,0.0,0.0,0.0
684.87,1533.0,0.0,0.0,0.0
685.36,1569.0,0.0,0.0,0.0
685.85,1574.0,0.0,0.0,0.0
686.34,1544.0,0.0,0.0,0.0
686.84,1488.0,0.0,0.0,0.0
687.33,1530.0,0.0,0.0,0.0
687.82,1495.0,0.0,0.0,0.0
688.31,1480.0,0.0,0.0,0.0
688.81,1468.0,0.0,0.0,0.0
689.3,1482.0,0.0,0.0,0.0
689.79,1583.0,0.0,0.0,0.0
690.28,1518.0,0.0,0.0,0.0
690.78,1509.0,0.0,0.0,0.0
691.27,1478.0,0.0,0.0,0.0
691.76,1498.0,0.0,0.0,0.0
692.25,1471.0,0.0,0.0,0.0
692.74,1513.0,0.0,0.0,0.0
693.24,1519.0,0.0,0.0,0.0
693.73,1502.0,0.0,0.0,0.0
694.22,1525.0,0.0,0.0,0.0
694.71,1517.0,0.0,0.0,0.0
695.2,1490.0,0.0,0.0,0.0
695.69,1484.0,0.0,0.0,0.0
696.19,1501.0,0.0,0.0,0.0
696.68,1512.0,0.0,0.0,0.0
697.17,1477.0,0.0,0.0,0.0
697.66,1508.0,0.0,0.0,0.0
698.15,1540.0,0.0,0.0,0.0
698.64,1486.0,0.0,0.0,0.0
699.13,1536.0,0.0,0.0,0.0
699.63,1489.0,0.0,0.0,0.0
700.12,1469.0,0.0,0.0,0.0
700.61,1514.0,0.0,0.0,0.0
701.1,1570.0,0.0,0.0,0.0
701.59,1548.0,0.0,0.0,0.0
702.08,1507.0,0.0,0.0,0.0
702.57,1553.0,0.0,0.0,0.0
703.06,1481.0,0.0,0.0,0.0
703.55,1493.0,0.0,0.0,0.0
704.04,1526.0,0.0,0.0,0.0
704.53,1508.0,0.0,0.0,0.0
705.02,1517.0,0.0,0.0,0.0
705.51,1525.0,0.0,0.0,0.0
706.0,1542.0,0.0,0.0,0.0
706.49,1462.0,0.0,0.0,0.0
706.99,1473.0,0.0,0.0,0.0
707.48,1524.0,0.0,0.0,0.0
707.97,1517.0,0.0,0.0,0.0
708.46,1507.0,0.0,0.0,0.0
708.95,1512.0,0.0,0.0,0.0
709.44,1501.0,0.0,0.0,0.0
709.93,1500.0,0.0,0.0,0.0
710.42,1537.0,0.0,0.0,0.0
710.91,1501.0,0.0,0.0,0.0
711.39,1493.0,0.0,0.0,0.0
711.88,1503.0,0.0,0.0,0.0
712.37,1563.0,0.0,0.0,0.0
712.86,1512.0,0.0,0.0,0.0
713.35,1557.0,0.0,0.0,0.0
713.84,1518.0,0.0,0.0,0.0
714.33,1489.0,0.0,0.0,0.0
714.82,1480.0,0.0,0.0,0.0
715.31,1477.0,0.0,0.0,0.0
715.8,1504.0,0.0,0.0,0.0
716.29,1531.0,0.0,0.0,0.0
716.78,1515.0,0.0,0.0,0.0
717.27,1530.0,0.0,0.0,0.0
717.76,1498.0,0.0,0.0,0.0
718.25,1485.0,0.0,0.0,0.0
718.73,1477.0,0.0,0.0,0.0
719.22,1485.0,0.0,0.0,0.0
719.71,1482.0,0.0,0.0,0.0
720.2,1553.0,0.0,0.0,0.0
720.69,1606.0,0.0,0.0,0.0
721.18,1542.0,0.0,0.0,0.0
721.67,1467.0,0.0,0.0,0.0
722.15,1491.0,0.0,0.0,0.0
722.64,1531.0,0.0,0.0,0.0
723.13,1544.0,0.0,0.0,0.0
723.62,1578.0,0.0,0.0,0.0
724.11,1564.0,0.0,0.0,0.0
724.6,1542.0,0.0,0.0,0.0
725.08,1534.0,0.0,0.0,0.0
725.57,1491.0,0.0,0.0,0.0
726.06,1555.0,0.0,0.0,0.0
726.55,1517.0,0.0,0.0,0.0
727.04,1524.0,0.0,0.0,0.0
727.52,1522.0,0.0,0.0,0.0
728.01,1517.0,0.0,0.0,0.0
728.5,1480.0,0.0,0.0,0.0
728.99,1495.0,0.0,0.0,0.0
729.48,1470.0,0.0,0.0,0.0
729.96,1413.0,0.0,0.0,0.0
730.45,1444.0,0.0,0.0,0.0
730.94,1497.0,0.0,0.0,0.0
731.43,1522.0,0.0,0.0,0.0
731.91,1529.0,0.0,0.0,0.0
732.4,1543.0,0.0,0.0,0.0
732.89,1478.0,0.0,0.0,0.0
733.37,1559.0,0.0,0.0,0.0
733.86,1536.0,0.0,0.0,0.0
734.35,1552.0,0.0,0.0,0.0
734.84,1490.0,0.0,0.0,0.0
735.32,1485.0,0.0,0.0,0.0
735.81,1486.0,0.0,0.0,0.0
736.3,1502.0,0.0,0.0,0.0
736.78,1511.0,0.0,0.0,0.0
737.27,1510.0,0.0,0.0,0.0
737.76,1483.0,0.0,0.0,0.0
738.24,1522.0,0.0,0.0,0.0
738.73,1469.0,0.0,0.0,0.0
739.22,1496.0,0.0,0.0,0.0
739.7,1532.0,0.0,0.0,0.0
740.19,1588.0,0.0,0.0,0.0
740.67,1564.0,0.0,0.0,0.0
741.16,1596.0,0.0,0.0,0.0
741.65,1499.0,0.0,0.0,0.0
742.13,1467.0,0.0,0.0,0.0
742.62,1451.0,0.0,0.0,0.0
743.1,1456.0,0.0,0.0,0.0
743.59,1549.0,0.0,0.0,0.0
744.08,1520.0,0.0,0.0,0.0
744.56,1490.0,0.0,0.0,0.0
745.05,1521.0,0.0,0.0,0.0
745.53,1541.0,0.0,0.0,0.0
746.02,1537.0,0.0,0.0,0.0
746.51,1519.0,0.0,0.0,0.0
746.99,1481.0,0.0,0.0,0.0
747.48,1501.0,0.0,0.0,0.0
747.96,1512.0,0.0,0.0,0.0
748.45,1563.0,0.0,0.0,0.0
748.93,1486.0,0.0,0.0,0.0
749.42,1496.0,0.0,0.0,0.0
749.9,1579.0,0.0,0.0,0.0
750.39,1509.0,0.0,0.0,0.0
750.87,1533.0,0.0,0.0,0.0
751.36,1492.0,0.0,0.0,0.0
751.84,1490.0,0.0,0.0,0.0
752.33,1445.0,0.0,0.0,0.0
752.81,1513.0,0.0,0.0,0.0
753.3,1521.0,0.0,0.0,0.0
753.78,1481.0,0.0,0.0,0.0
754.27,1460.0,0.0,0.0,0.0
754.75,1514.0,0.0,0.0,0.0
755.24,1502.0,0.0,0.0,0.0
755.72,1531.0,0.0,0.0,0.0
756.2,1483.0,0.0,0.0,0.0
756.69,1438.0,0.0,0.0,0.0
757.17,1479.0,0.0,0.0,0.0
757.66,1512.0,0.0,0.0,0.0
758.14,1487.0,0.0,0.0,0.0
758.63,1463.0,0.0,0.0,0.0
759.11,1484.0,0.0,0.0,0.0
759.59,1503.0,0.0,0.0,0.0
760.08,1510.0,0.0,0.0,0.0
760.56,1519.0,0.0,0.0,0.0
761.05,1547.0,0.0,0.0,0.0
761.53,1554.0,0.0,0.0,0.0
762.01,1587.0,0.0,0.0,0.0
762.5,1581.0,0.0,0.0,0.0
762.98,1520.0,0.0,0.0,0.0
763.46,1474.0,0.0,0.0,0.0
763.95,1419.0,0.0,0.0,0.0
764.43,1453.0,0.0,0.0,0.0
764.91,1457.0,0.0,0.0,0.0
765.4,1525.0,0.0,0.0,0.0
765.88,1526.0,0.0,0.0,0.0
766.36,1481.0,0.0,0.0,0.0
766.85,1520.0,0.0,0.0,0.0
767.33,1560.0,0.0,0.0,0.0
767.81,1588.0,0.0,0.0,0.0
768.3,1533.0,0.0,0.0,0.0
768.78,1478.0,0.0,0.0,0.0
769.26,1505.0,0.0,0.0,0.0
769.74,1503.0,0.0,0.0,0.0
770.23,1473.0,0.0,0.0,0.0
770.71,1500.0,0.0,0.0,0.0
771.19,1541.0,0.0,0.0,0.0
771.67,1471.0,0.0,0.0,0.0
772.16,1510.0,0.0,0.0,0.0
772.64,1536.0,0.0,0.0,0.0
773.12,1546.0,0.0,0.0,0.0
773.6,1554.0,0.0,0.0,0.0
774.09,1488.0,0.0,0.0,0.0
774.57,1487.0,0.0,0.0,0.0
775.05,1487.0,0.0,0.0,0.0
775.53,1526.0,0.0,0.0,0.0
776.01,1550.0,0.0,0.0,0.0
776.5,1534.0,0.0,0.0,0.0
776.98,1509.0,0.0,0.0,0.0
777.46,1505.0,0.0,0.0,0.0
777.94,1548.0,0.0,0.0,0.0
778.42,1477.0,0.0,0.0,0.0
778.91,1524.0,0.0,0.0,0.0
779.39,1485.0,0.0,0.0,0.0
779.87,1465.0,0.0,0.0,0.0
780.35,1507.0,0.0,0.0,0.0
780.83,1523.0,0.0,0.0,0.0
781.31,1531.0,0.0,0.0,0.0
781.79,1533.0,0.0,0.0,0.0
782.27,1504.0,0.0,0.0,0.0
782.76,1540.0,0.0,0.0,0.0
783.24,1523.0,0.0,0.0,0.0
783.72,1555.0,0.0,0.0,0.0
784.2,1482.0,0.0,0.0,0.0
784.68,1509.0,0.0,0.0,0.0
785.16,1514.0,0.0,0.0,0.0
785.64,1508.0,0.0,0.0,0.0
786.12,1553.0,0.0,0.0,0.0
786.6,1494.0,0.0,0.0,0.0
787.08,1535.0,0.0,0.0,0.0
787.56,1564.0,0.0,0.0,0.0
788.05,1492.0,0.0,0.0,0.0
788.53,1505.0,0.0,0.0,0.0
789.01,1545.0,0.0,0.0,0.0
789.49,1520.0,0.0,0.0,0.0
789.97,1490.0,0.0,0.0,0.0
790.45,1553.0,0.0,0.0,0.0
790.93,1561.0,0.0,0.0,0.0
791.41,1535.0,0.0,0.0,0.0
791.89,1515.0,0.0,0.0,0.0
792.37,1527.0,0.0,0.0,0.0
792.85,1510.0,0.0,0.0,0.0
793.33,1504.0,0.0,0.0,0.0
793.81,1534.0,0.0,0.0,0.0
794.29,1492.0,0.0,0.0,0.0
794.77,1534.0,0.0,0.0,0.0
795.25,1547.0,0.0,0.0,0.0
795.73,1601.0,0.0,0.0,0.0
796.2,1563.0,0.0,0.0,0.0
796.68,1565.0,0.0,0.0,0.0
797.16,1533.0,0.0,0.0,0.0
797.64,1536.0,0.0,0.0,0.0
798.12,1515.0,0.0,0.0,0.0
798.6,1518.0,0.0,0.0,0.0
799.08,1531.0,0.0,0.0,0.0
799.56,1532.0,0.0,0.0,0.0
800.04,1542.0,0.0,0.0,0.0
800.52,1541.0,0.0,0.0,0.0
801.0,1529.0,0.0,0.0,0.0
801.48,1569.0,0.0,0.0,0.0
801.95,1503.0,0.0,0.0,0.0
802.43,1534.0,0.0,0.0,0.0
802.91,1527.0,0.0,0.0,0.0
803.39,1570.0,0.0,0.0,0.0
803.87,1527.0,0.0,0.0,0.0
804.35,1500.0,0.0,0.0,0.0
804.83,1512.0,0.0,0.0,0.0
805.3,1530.0,0.0,0.0,0.0
805.78,1556.0,0.0,0.0,0.0
806.26,1561.0,0.0,0.0,0.0
806.74,1548.0,0.0,0.0,0.0
807.22,1518.0,0.0,0.0,0.0
807.69,1502.0,0.0,0.0,0.0
808.17,1513.0,0.0,0.0,0.0
808.65,1537.0,0.0,0.0,0.0
809.13,1557.0,0.0,0.0,0.0
809.61,1468.0,0.0,0.0,0.0
810.08,1527.0,0.0,0.0,0.0
810.56,1558.0,0.0,0.0,0.0
811.04,1511.0,0.0,0.0,0.0
811.52,1467.0,0.0,0.0,0.0
811.99,1461.0,0.0,0.0,0.0
812.47,1533.0,0.0,0.0,0.0
812.95,1559.0,0.0,0.0,0.0
813.43,1473.0,0.0,0.0,0.0
813.9,1525.0,0.0,0.0,0.0
814.38,1535.0,0.0,0.0,0.0
814.86,1452.0,0.0,0.0,0.0
815.34,1469.0,0.0,0.0,0.0
815.81,1463.0,0.0,0.0,0.0
816.29,1508.0,0.0,0.0,0.0
816.77,1562.0,0.0,0.0,0.0
817.24,1464.0,0.0,0.0,0.0
817.72,1539.0,0.0,0.0,0.0
818.2,1585.0,0.0,0.0,0.0
818.67,1543.0,0.0,0.0,0.0
819.15,1533.0,0.0,0.0,0.0
819.63,1495.0,0.0,0.0,0.0
820.1,1498.0,0.0,0.0,0.0
820.58,1521.0,0.0,0.0,0.0
821.06,1505.0,0.0,0.0,0.0
821.53,1516.0,0.0,0.0,0.0
822.01,1542.0,0.0,0.0,0.0
822.49,1496.0,0.0,0.0,0.0
822.96,1471.0,0.0,0.0,0.0
823.44,1467.0,0.0,0.0,0.0
823.91,1438.0,0.0,0.0,0.0
824.39,1465.0,0.0,0.0,0.0
824.87,1460.0,0.0,0.0,0.0
825.34,1460.0,0.0,0.0,0.0
825.82,1459.0,0.0,0.0,0.0
826.29,1538.0,0.0,0.0,0.0
826.77,1557.0,0.0,0.0,0.0
827.24,1525.0,0.0,0.0,0.0
827.72,1490.0,0.0,0.0,0.0
828.2,1510.0,0.0,0.0,0.0
828.67,1565.0,0.0,0.0,0.0
829.15,1522.0,0.0,0.0,0.0
829.62,1497.0,0.0,0.0,0.0
830.1,1506.0,0.0,0.0,0.0
830.57,1546.0,0.0,0.0,0.0
831.05,1497.0,0.0,0.0,0.0
831.52,1509.0,0.0,0.0,0.0
832.0,1501.0,0.0,0.0,0.0
832.47,1510.0,0.0,0.0,0.0
832.95,1555.0,0.0,0.0,0.0
833.42,1551.0,0.0,0.0,0.0
833.9,1546.0,0.0,0.0,0.0
834.37,1488.0,0.0,0.0,0.0
834.85,1479.0,0.0,0.0,0.0
835.32,1439.0,0.0,0.0,0.0
835.79,1450.0,0.0,0.0,0.0
836.27,1496.0,0.0,0.0,0.0
836.74,1520.0,0.0,0.0,0.0
837.22,1544.0,0.0,0.0,0.0
837.69,1513.0,0.0,0.0,0.0
838.17,1488.0,0.0,0.0,0.0
838.64,1538.0,0.0,0.0,0.0
839.11,1533.0,0.0,0.0,0.0
839.59,1484.0,0.0,0.0,0.0
840.06,1570.0,0.0,0.0,0.0
840.54,1593.0,0.0,0.0,0.0
841.01,1538.0,0.0,0.0,0.0
841.48,1513.0,0.0,0.0,0.0
841.96,1501.0,0.0,0.0,0.0
842.43,1588.0,0.0,0.0,0.0
842.91,1560.0,0.0,0.0,0.0
843.38,1509.0,0.0,0.0,0.0
843.85,1559.0,0.0,0.0,0.0
844.33,1524.0,0.0,0.0,0.0
844.8,1483.0,0.0,0.0,0.0
845.27,1496.0,0.0,0.0,0.0
845.75,1551.0,0.0,0.0,0.0
846.22,1528.0,0.0,0.0,0.0
846.69,1527.0,0.0,0.0,0.0
847.16,1522.0,0.0,0.0,0.0
847.64,1534.0,0.0,0.0,0.0
848.11,1561.0,0.0,0.0,0.0
848.58,1521.0,0.0,0.0,0.0
849.06,1481.0,0.0,0.0,0.0
849.53,1503.0,0.0,0.0,0.0
850.0,1489.0,0.0,0.0,0.0
850.47,1507.0,0.0,0.0,0.0
850.95,1536.0,0.0,0.0,0.0
851.42,1440.0,0.0,0.0,0.0
851.89,1515.0,0.0,0.0,0.0
852.36,1518.0,0.0,0.0,0.0
852.84,1499.0,0.0,0.0,0.0
853.31,1515.0,0.0,0.0,0.0
853.78,1544.0,0.0,0.0,0.0
854.25,1505.0,0.0,0.0,0.0
854.73,1499.0,0.0,0.0,0.0
855.2,1528.0,0.0,0.0,0.0
855.67,1541.0,0.0,0.0,0.0
856.14,1570.0,0.0,0.0,0.0
856.61,1532.0,0.0,0.0,0.0
857.08,1474.0,0.0,0.0,0.0
857.56,1520.0,0.0,0.0,0.0
858.03,1511.0,0.0,0.0,0.0
858.5,1560.0,0.0,0.0,0.0
858.97,1539.0,0.0,0.0,0.0
859.44,1535.0,0.0,0.0,0.0
859.91,1558.0,0.0,0.0,0.0
860.39,1507.0,0.0,0.0,0.0
860.86,1504.0,0.0,0.0,0.0
861.33,1523.0,0.0,0.0,0.0
861.8,1559.0,0.0,0.0,0.0
862.27,1572.0,0.0,0.0,0.0
862.74,1516.0,0.0,0.0,0.0
863.21,1485.0,0.0,0.0,0.0
863.68,1509.0,0.0,0.0,0.0
864.15,1560.0,0.0,0.0,0.0
864.63,1499.0,0.0,0.0,0.0
865.1,1552.0,0.0,0.0,0.0
865.57,1535.0,0.0,0.0,0.0
866.04,1578.0,0.0,0.0,0.0
866.51,1631.0,0.0,0.0,0.0
866.98,1664.0,0.0,0.0,0.0
867.45,1651.0,0.0,0.0,0.0
867.92,1662.0,0.0,0.0,0.0
868.39,1673.0,0.0,0.0,0.0
868.86,1675.0,0.0,0.0,0.0
869.33,1692.0,0.0,0.0,0.0
869.8,1705.0,0.0,0.0,0.0
870.27,1714.0,0.0,0.0,0.0
870.74,1775.0,0.0,0.0,0.0
871.21,1826.0,0.0,0.0,0.0
871.68,1837.0,0.0,0.0,0.0
872.15,1784.0,0.0,0.0,0.0
872.62,1808.0,0.0,0.0,0.0
873.09,1802.0,0.0,0.0,0.0
873.56,1728.0,0.0,0.0,0.0
874.03,1783.0,0.0,0.0,0.0
874.5,1690.0,0.0,0.0,0.0
874.97,1663.0,0.0,0.0,0.0
875.44,1686.0,0.0,0.0,0.0
875.91,1705.0,0.0,0.0,0.0
876.38,1759.0,0.0,0.0,0.0
876.84,1894.0,0.0,0.0,0.0
877.31,2044.0,0.0,0.0,0.0
877.78,2138.0,0.0,0.0,0.0
878.25,2258.0,0.0,0.0,0.0
878.72,2388.0,0.0,0.0,0.0
879.19,2690.0,0.0,0.0,0.0
879.66,2977.0,0.0,0.0,0.0
880.13,3433.0,0.0,0.0,0.0
880.6,4365.0,0.0,0.0,0.0
881.06,5405.0,0.0,0.0,0.0
881.53,5805.0,0.0,0.0,0.0
882.0,5616.0,0.0,0.0,0.0
882.47,6095.0,0.0,0.0,0.0
882.94,6863.0,0.0,0.0,0.0
883.41,7373.0,0.0,0.0,0.0
883.88,7665.0,0.0,0.0,0.0
884.34,7361.0,0.0,0.0,0.0
884.81,7227.0,0.0,0.0,0.0
885.28,7791.0,0.0,0.0,0.0
885.75,8144.0,0.0,0.0,0.0
886.22,7830.0,0.0,0.0,0.0
886.68,8574.0,0.0,0.0,0.0
887.15,9601.0,0.0,0.0,0.0
887.62,10968.0,0.0,0.0,0.0
888.09,12064.0,0.0,0.0,0.0
888.55,11370.0,0.0,0.0,0.0
889.02,10825.0,0.0,0.0,0.0
889.49,11728.0,0.0,0.0,0.0
889.96,12625.0,0.0,0.0,0.0
890.42,12783.0,0.0,0.0,0.0
890.89,12116.0,0.0,0.0,0.0
891.36,11032.0,0.0,0.0,0.0
891.83,10118.0,0.0,0.0,0.0
892.29,10328.0,0.0,0.0,0.0
892.76,11748.0,0.0,0.0,0.0
893.23,13033.0,0.0,0.0,0.0
893.69,13265.0,0.0,0.0,0.0
894.16,12501.0,0.0,0.0,0.0
894.63,12243.0,0.0,0.0,0.0
895.1,12625.0,0.0,0.0,0.0
895.56,13584.0,0.0,0.0,0.0
896.03,14221.0,0.0,0.0,0.0
896.5,14080.0,0.0,0.0,0.0
896.96,13290.0,0.0,0.0,0.0
897.43,12834.0,0.0,0.0,0.0
897.89,11904.0,0.0,0.0,0.0
898.36,10646.0,0.0,0.0,0.0
898.83,10198.0,0.0,0.0,0.0
899.29,10155.0,0.0,0.0,0.0
899.76,9854.0,0.0,0.0,0.0
900.23,9468.0,0.0,0.0,0.0
900.69,8707.0,0.0,0.0,0.0
901.16,7557.0,0.0,0.0,0.0
901.62,6374.0,0.0,0.0,0.0
902.09,5940.0,0.0,0.0,0.0
902.56,5914.0,0.0,0.0,0.0
903.02,5648.0,0.0,0.0,0.0
903.49,5073.0,0.0,0.0,0.0
903.95,4843.0,0.0,0.0,0.0
904.42,5040.0,0.0,0.0,0.0
904.88,4939.0,0.0,0.0,0.0
905.35,4245.0,0.0,0.0,0.0
905.81,3725.0,0.0,0.0,0.0
906.28,3689.0,0.0,0.0,0.0
906.75,3722.0,0.0,0.0,0.0
907.21,3795.0,0.0,0.0,0.0
907.68,3771.0,0.0,0.0,0.0
908.14,3779.0,0.0,0.0,0.0
908.61,3563.0,0.0,0.0,0.0
909.07,3079.0,0.0,0.0,0.0
909.54,2594.0,0.0,0.0,0.0
910.0,2439.0,0.0,0.0,0.0
910.46,2406.0,0.0,0.0,0.0
910.93,2216.0,0.0,0.0,0.0
911.39,2039.0,0.0,0.0,0.0
911.86,1939.0,0.0,0.0,0.0
912.32,1839.0,0.0,0.0,0.0
912.79,1824.0,0.0,0.0,0.0
913.25,1757.0,0.0,0.0,0.0
913.72,1753.0,0.0,0.0,0.0
914.18,1658.0,0.0,0.0,0.0
914.64,1615.0,0.0,0.0,0.0
915.11,1621.0,0.0,0.0,0.0
915.57,1632.0,0.0,0.0,0.0
916.04,1610.0,0.0,0.0,0.0
916.5,1641.0,0.0,0.0,0.0
916.96,1586.0,0.0,0.0,0.0
917.43,1595.0,0.0,0.0,0.0
917.89,1596.0,0.0,0.0,0.0
918.36,1503.0,0.0,0.0,0.0
918.82,1594.0,0.0,0.0,0.0
919.28,1558.0,0.0,0.0,0.0
919.75,1511.0,0.0,0.0,0.0
920.21,1580.0,0.0,0.0,0.0
920.67,1556.0,0.0,0.0,0.0
921.14,1564.0,0.0,0.0,0.0
921.6,1563.0,0.0,0.0,0.0
922.06,1551.0,0.0,0.0,0.0
922.53,1548.0,0.0,0.0,0.0
922.99,1523.0,0.0,0.0,0.0
923.45,1548.0,0.0,0.0,0.0
923.92,1482.0,0.0,0.0,0.0
924.38,1521.0,0.0,0.0,0.0
924.84,1508.0,0.0,0.0,0.0
925.3,1528.0,0.0,0.0,0.0
925.77,1533.0,0.0,0.0,0.0
926.23,1508.0,0.0,0.0,0.0
926.69,1522.0,0.0,0.0,0.0
927.15,1551.0,0.0,0.0,0.0
927.62,1585.0,0.0,0.0,0.0
928.08,1554.0,0.0,0.0,0.0
928.54,1558.0,0.0,0.0,0.0
929.0,1521.0,0.0,0.0,0.0
929.47,1531.0,0.0,0.0,0.0
929.93,1503.0,0.0,0.0,0.0
930.39,1470.0,0.0,0.0,0.0
930.85,1526.0,0.0,0.0,0.0
931.31,1487.0,0.0,0.0,0.0
931.78,1474.0,0.0,0.0,0.0
932.24,1446.0,0.0,0.0,0.0
932.7,1441.0,0.0,0.0,0.0
933.16,1509.0,0.0,0.0,0.0
933.62,1527.0,0.0,0.0,0.0
934.08,1477.0,0.0,0.0,0.0
934.55,1553.0,0.0,0.0,0.0
935.01,1543.0,0.0,0.0,0.0
935.47,1513.0,0.0,0.0,0.0
935.93,1540.0,0.0,0.0,0.0
936.39,1525.0,0.0,0.0,0.0
936.85,1536.0,0.0,0.0,0.0
937.31,1517.0,0.0,0.0,0.0
937.77,1525.0,0.0,0.0,0.0
938.23,1527.0,0.0,0.0,0.0
938.7,1535.0,0.0,0.0,0.0
939.16,1594.0,0.0,0.0,0.0
939.62,1589.0,0.0,0.0,0.0
940.08,1569.0,0.0,0.0,0.0
940.54,1522.0,0.0,0.0,0.0
941.0,1516.0,0.0,0.0,0.0
941.46,1489.0,0.0,0.0,0.0
941.92,1492.0,0.0,0.0,0.0
942.38,1496.0,0.0,0.0,0.0
942.84,1528.0,0.0,0.0,0.0
943.3,1515.0,0.0,0.0,0.0
943.76,1536.0,0.0,0.0,0.0
944.22,1557.0,0.0,0.0,0.0
944.68,1527.0,0.0,0.0,0.0
945.14,1494.0,0.0,0.0,0.0
945.6,1514.0,0.0,0.0,0.0
946.06,1509.0,0.0,0.0,0.0
946.52,1476.0,0.0,0.0,0.0
946.98,1522.0,0.0,0.0,0.0
947.44,1539.0,0.0,0.0,0.0
947.9,1463.0,0.0,0.0,0.0
948.36,1539.0,0.0,0.0,0.0
948.82,1567.0,0.0,0.0,0.0
949.28,1498.0,0.0,0.0,0.0
949.74,1499.0,0.0,0.0,0.0
950.2,1500.0,0.0,0.0,0.0
950.66,1531.0,0.0,0.0,0.0
951.12,1574.0,0.0,0.0,0.0
951.58,1538.0,0.0,0.0,0.0
952.03,1537.0,0.0,0.0,0.0
952.49,1507.0,0.0,0.0,0.0
952.95,1536.0,0.0,0.0,0.0
953.41,1495.0,0.0,0.0,0.0
953.87,1520.0,0.0,0.0,0.0
954.33,1526.0,0.0,0.0,0.0
954.79,1519.0,0.0,0.0,0.0
955.25,1507.0,0.0,0.0,0.0
955.71,1471.0,0.0,0.0,0.0
956.16,1503.0,0.0,0.0,0.0
956.62,1478.0,0.0,0.0,0.0
957.08,1492.0,0.0,0.0,0.0
957.54,1509.0,0.0,0.0,0.0
958.0,1452.0,0.0,0.0,0.0
958.46,1501.0,0.0,0.0,0.0
958.91,1520.0,0.0,0.0,0.0
959.37,1524.0,0.0,0.0,0.0
959.83,1544.0,0.0,0.0,0.0
960.29,1573.0,0.0,0.0,0.0
960.75,1603.0,0.0,0.0,0.0
961.2,1574.0,0.0,0.0,0.0
961.66,1513.0,0.0,0.0,0.0
962.12,1538.0,0.0,0.0,0.0
962.58,1552.0,0.0,0.0,0.0
963.03,1540.0,0.0,0.0,0.0
963.49,1555.0,0.0,0.0,0.0
963.95,1553.0,0.0,0.0,0.0
964.41,1496.0,0.0,0.0,0.0
964.86,1460.0,0.0,0.0,0.0
965.32,1485.0,0.0,0.0,0.0
965.78,1520.0,0.0,0.0,0.0
966.23,1544.0,0.0,0.0,0.0
966.69,1507.0,0.0,0.0,0.0
967.15,1457.0,0.0,0.0,0.0
967.61,1512.0,0.0,0.0,0.0
968.06,1536.0,0.0,0.0,0.0
968.52,1484.0,0.0,0.0,0.0
968.98,1545.0,0.0,0.0,0.0
969.43,1558.0,0.0,0.0,0.0
969.89,1526.0,0.0,0.0,0.0
970.35,1505.0,0.0,0.0,0.0
970.8,1496.0,0.0,0.0,0.0
971.26,1516.0,0.0,0.0,0.0
971.71,1529.0,0.0,0.0,0.0
972.17,1507.0,0.0,0.0,0.0
972.63,1462.0,0.0,0.0,0.0
973.08,1554.0,0.0,0.0,0.0
973.54,1555.0,0.0,0.0,0.0
974.0,1532.0,0.0,0.0,0.0
974.45,1561.0,0.0,0.0,0.0
974.91,1502.0,0.0,0.0,0.0
975.36,1471.0,0.0,0.0,0.0
975.82,1437.0,0.0,0.0,0.0
976.27,1505.0,0.0,0.0,0.0
976.73,1499.0,0.0,0.0,0.0
977.19,1446.0,0.0,0.0,0.0
977.64,1466.0,0.0,0.0,0.0
978.1,1493.0,0.0,0.0,0.0
978.55,1526.0,0.0,0.0,0.0
979.01,1531.0,0.0,0.0,0.0
979.46,1540.0,0.0,0.0,0.0
979.92,1548.0,0.0,0.0,0.0
980.37,1498.0,0.0,0.0,0.0
980.83,1587.0,0.0,0.0,0.0
981.28,1549.0,0.0,0.0,0.0
981.74,1526.0,0.0,0.0,0.0
982.19,1468.0,0.0,0.0,0.0
982.65,1511.0,0.0,0.0,0.0
983.1,1504.0,0.0,0.0,0.0
983.56,1571.0,0.0,0.0,0.0
984.01,1509.0,0.0,0.0,0.0
984.47,1436.0,0.0,0.0,0.0
984.92,1474.0,0.0,0.0,0.0
985.38,1468.0,0.0,0.0,0.0
985.83,1506.0,0.0,0.0,0.0
986.28,1495.0,0.0,0.0,0.0
986.74,1475.0,0.0,0.0,0.0
987.19,1468.0,0.0,0.0,0.0
987.65,1528.0,0.0,0.0,0.0
988.1,1526.0,0.0,0.0,0.0
988.55,1583.0,0.0,0.0,0.0
989.01,1503.0,0.0,0.0,0.0
989.46,1477.0,0.0,0.0,0.0
989.92,1540.0,0.0,0.0,0.0
990.37,1550.0,0.0,0.0,0.0
990.82,1481.0,0.0,0.0,0.0
991.28,1463.0,0.0,0.0,0.0
991.73,1516.0,0.0,0.0,0.0
992.18,1516.0,0.0,0.0,0.0
992.64,1460.0,0.0,0.0,0.0
993.09,1498.0,0.0,0.0,0.0
993.54,1477.0,0.0,0.0,0.0
994.0,1537.0,0.0,0.0,0.0
994.45,1520.0,0.0,0.0,0.0
994.9,1508.0,0.0,0.0,0.0
995.36,1528.0,0.0,0.0,0.0
995.81,1535.0,0.0,0.0,0.0
996.26,1566.0,0.0,0.0,0.0
996.71,1482.0,0.0,0.0,0.0
997.17,1496.0,0.0,0.0,0.0
997.62,1482.0,0.0,0.0,0.0
998.07,1496.0,0.0,0.0,0.0
998.53,1476.0,0.0,0.0,0.0
998.98,1521.0,0.0,0.0,0.0
999.43,1487.0,0.0,0.0,0.0
999.88,1544.0,0.0,0.0,0.0
1000.33,1500.0,0.0,0.0,0.0
1000.79,1534.0,0.0,0.0,0.0
1001.24,1545.0,0.0,0.0,0.0
1001.69,1522.0,0.0,0.0,0.0
1002.14,1617.0,0.0,0.0,0.0
1002.6,1543.0,0.0,0.0,0.0
1003.05,1550.0,0.0,0.0,0.0
1003.5,1556.0,0.0,0.0,0.0
1003.95,1545.0,0.0,0.0,0.0
1004.4,1531.0,0.0,0.0,0.0
1004.85,1504.0,0.0,0.0,0.0
1005.31,1465.0,0.0,0.0,0.0
1005.76,1539.0,0.0,0.0,0.0
1006.21,1564.0,0.0,0.0,0.0
1006.66,1524.0,0.0,0.0,0.0
1007.11,1489.0,0.0,0.0,0.0
1007.56,1527.0,0.0,0.0,0.0
1008.01,1500.0,0.0,0.0,0.0
1008.47,1468.0,0.0,0.0,0.0
1008.92,1528.0,0.0,0.0,0.0
1009.37,1483.0,0.0,0.0,0.0
1009.82,1505.0,0.0,0.0,0.0
1010.27,1566.0,0.0,0.0,0.0
1010.72,1567.0,0.0,0.0,0.0
1011.17,1695.0,0.0,0.0,0.0
1011.62,1545.0,0.0,0.0,0.0
1012.07,1517.0,0.0,0.0,0.0
1012.52,1517.0,0.0,0.0,0.0
1012.97,1572.0,0.0,0.0,0.0
1013.42,1566.0,0.0,0.0,0.0
1013.87,1494.0,0.0,0.0,0.0
1014.32,1455.0,0.0,0.0,0.0
1014.77,1501.0,0.0,0.0,0.0
1015.22,1459.0,0.0,0.0,0.0
1015.67,1538.0,0.0,0.0,0.0
1016.12,1536.0,0.0,0.0,0.0
1016.57,1518.0,0.0,0.0,0.0
1017.02,1583.0,0.0,0.0,0.0
1017.47,1498.0,0.0,0.0,0.0
1017.92,1502.0,0.0,0.0,0.0
1018.37,1515.0,0.0,0.0,0.0
1018.82,1544.0,0.0,0.0,0.0
1019.27,1528.0,0.0,0.0,0.0
1019.72,1497.0,0.0,0.0,0.0
1020.17,1498.0,0.0,0.0,0.0
1020.62,1470.0,0.0,0.0,0.0
1021.07,1544.0,0.0,0.0,0.0
1021.52,1537.0,0.0,0.0,0.0
1021.97,1502.0,0.0,0.0,0.0
1022.42,1456.0,0.0,0.0,0.0
1022.87,1480.0,0.0,0.0,0.0
1023.32,1508.0,0.0,0.0,0.0
1023.76,1445.0,0.0,0.0,0.0
1024.21,1500.0,0.0,0.0,0.0
1024.66,1533.0,0.0,0.0,0.0
1025.11,1508.0,0.0,0.0,0.0
1025.56,1540.0,0.0,0.0,0.0
1026.01,1529.0,0.0,0.0,0.0
1026.46,1528.0,0.0,0.0,0.0
1026.91,1509.0,0.0,0.0,0.0
1027.35,1517.0,0.0,0.0,0.0
1027.8,1544.0,0.0,0.0,0.0
1028.25,1560.0,0.0,0.0,0.0
1028.7,1534.0,0.0,0.0,0.0
1029.15,1475.0,0.0,0.0,0.0
1029.59,1466.0,0.0,0.0,0.0
1030.04,1539.0,0.0,0.0,0.0
1030.49,1474.0,0.0,0.0,0.0
1030.94,1438.0,0.0,0.0,0.0
1031.39,1515.0,0.0,0.0,0.0
1031.83,1500.0,0.0,0.0,0.0
1032.28,1511.0,0.0,0.0,0.0
1032.73,1494.0,0.0,0.0,0.0
1033.18,1515.0,0.0,0.0,0.0
1033.62,1553.0,0.0,0.0,0.0
1034.07,1530.0,0.0,0.0,0.0
1034.52,1474.0,0.0,0.0,0.0
1034.97,1456.0,0.0,0.0,0.0
1035.41,1460.0,0.0,0.0,0.0
1035.86,1552.0,0.0,0.0,0.0
1036.31,1558.0,0.0,0.0,0.0
1036.75,1511.0,0.0,0.0,0.0
1037.2,1500.0,0.0,0.0,0.0
1037.65,1529.0,0.0,0.0,0.0
1038.1,1515.0,0.0,0.0,0.0
1038.54,1485.0,0.0,0.0,0.0
1038.99,1542.0,0.0,0.0,0.0
1039.44,1565.0,0.0,0.0,0.0
1039.88,1532.0,0.0,0.0,0.0
1040.33,1596.0,0.0,0.0,0.0
1040.77,1578.0,0.0,0.0,0.0
1041.22,1476.0,0.0,0.0,0.0
1041.67,1498.0,0.0,0.0,0.0
1042.11,1531.0,0.0,0.0,0.0
1042.56,1513.0,0.0,0.0,0.0
1043.01,1505.0,0.0,0.0,0.0
1043.45,1499.0,0.0,0.0,0.0
1043.9,1506.0,0.0,0.0,0.0
1044.34,1514.0,0.0,0.0,0.0
1044.79,1503.0,0.0,0.0,0.0
1045.24,1485.0,0.0,0.0,0.0
1045.68,1460.0,0.0,0.0,0.0
1046.13,1529.0,0.0,0.0,0.0
1046.57,1525.0,0.0,0.0,0.0
1047.02,1480.0,0.0,0.0,0.0
1047.46,1507.0,0.0,0.0,0.0
1047.91,1503.0,0.0,0.0,0.0
1048.35,1494.0,0.0,0.0,0.0
1048.8,1533.0,0.0,0.0,0.0
1049.24,1508.0,0.0,0.0,0.0
1049.69,1489.0,0.0,0.0,0.0
1050.13,1504.0,0.0,0.0,0.0
1050.58,1514.0,0.0,0.0,0.0
1051.02,1581.0,0.0,0.0,0.0
1051.47,1524.0,0.0,0.0,0.0
1051.91,1495.0,0.0,0.0,0.0
1052.36,1484.0,0.0,0.0,0.0
1052.8,1497.0,0.0,0.0,0.0
1053.25,1499.0,0.0,0.0,0.0
1053.69,1478.0,0.0,0.0,0.0
1054.14,1494.0,0.0,0.0,0.0
1054.58,1482.0,0.0,0.0,0.0
1055.03,1509.0,0.0,0.0,0.0
1055.47,1472.0,0.0,0.0,0.0
1055.91,1478.0,0.0,0.0,0.0
1056.36,1545.0,0.0,0.0,0.0
1056.8,1464.0,0.0,0.0,0.0
1057.25,1461.0,0.0,0.0,0.0
1057.69,1503.0,0.0,0.0,0.0
1058.13,1472.0,0.0,0.0,0.0
1058.58,1494.0,0.0,0.0,0.0
1059.02,1535.0,0.0,0.0,0.0
1059.46,1468.0,0.0,0.0,0.0
1059.91,1524.0,0.0,0.0,0.0
1060.35,1520.0,0.0,0.0,0.0
1060.8,1491.0,0.0,0.0,0.0
1061.24,1526.0,0.0,0.0,0.0
1061.68,1509.0,0.0,0.0,0.0
1062.13,1512.0,0.0,0.0,0.0
1062.57,1492.0,0.0,0.0,0.0
1063.01,1490.0,0.0,0.0,0.0
1063.45,1459.0,0.0,0.0,0.0
1063.9,1481.0,0.0,0.0,0.0
1064.34,1487.0,0.0,0.0,0.0
1064.78,1446.0,0.0,0.0,0.0
1065.23,1437.0,0.0,0.0,0.0
1065.67,1497.0,0.0,0.0,0.0
1066.11,1596.0,0.0,0.0,0.0
1066.55,1600.0,0.0,0.0,0.0
1067.0,1519.0,0.0,0.0,0.0
1067.44,1537.0,0.0,0.0,0.0
1067.88,1539.0,0.0,0.0,0.0
1068.32,1592.0,0.0,0.0,0.0
1068.77,1529.0,0.0,0.0,0.0
1069.21,1529.0,0.0,0.0,0.0
1069.65,1557.0,0.0,0.0,0.0
1070.09,1480.0,0.0,0.0,0.0
1070.53,1495.0,0.0,0.0,0.0
1070.98,1531.0,0.0,0.0,0.0
1071.42,1525.0,0.0,0.0,0.0
1071.86,1510.0,0.0,0.0,0.0
1072.3,1462.0,0.0,0.0,0.0
1072.74,1526.0,0.0,0.0,0.0
1073.19,1515.0,0.0,0.0,0.0
1073.63,1510.0,0.0,0.0,0.0
1074.07,1476.0,0.0,0.0,0.0
1074.51,1507.0,0.0,0.0,0.0
1074.95,1491.0,0.0,0.0,0.0
1075.39,1442.0,0.0,0.0,0.0
1075.83,1476.0,0.0,0.0,0.0
1076.27,1508.0,0.0,0.0,0.0
1076.72,1518.0,0.0,0.0,0.0
1077.16,1502.0,0.0,0.0,0.0
1077.6,1484.0,0.0,0.0,0.0
1078.04,1491.0,0.0,0.0,0.0
1078.48,1512.0,0.0,0.0,0.0
1078.92,1497.0,0.0,0.0,0.0
1079.36,1537.0,0.0,0.0,0.0
1079.8,1588.0,0.0,0.0,0.0
1080.24,1520.0,0.0,0.0,0.0
1080.68,1502.0,0.0,0.0,0.0
1081.12,1517.0,0.0,0.0,0.0
1081.56,1509.0,0.0,0.0,0.0
1082.0,1503.0,0.0,0.0,0.0
1082.44,1542.0,0.0,0.0,0.0
1082.88,1503.0,0.0,0.0,0.0
1083.32,1491.0,0.0,0.0,0.0
1083.76,1483.0,0.0,0.0,0.0
1084.2,1463.0,0.0,0.0,0.0
1084.64,1432.0,0.0,0.0,0.0
1085.08,1479.0,0.0,0.0,0.0
1085.52,1458.0,0.0,0.0,0.0
1085.96,1469.0,0.0,0.0,0.0
1086.4,1475.0,0.0,0.0,0.0
1086.84,1491.0,0.0,0.0,0.0
1087.28,1512.0,0.0,0.0,0.0
1087.72,1533.0,0.0,0.0,0.0
1088.16,1535.0,0.0,0.0,0.0
1088.6,1526.0,0.0,0.0,0.0
1089.04,1485.0,0.0,0.0,0.0
1089.48,1504.0,0.0,0.0,0.0
1089.92,1529.0,0.0,0.0,0.0
1090.36,1511.0,0.0,0.0,0.0
1090.79,1501.0,0.0,0.0,0.0
1091.23,1477.0,0.0,0.0,0.0
1091.67,1503.0,0.0,0.0,0.0
1092.11,1514.0,0.0,0.0,0.0
1092.55,1549.0,0.0,0.0,0.0
1092.99,1509.0,0.0,0.0,0.0
1093.43,1513.0,0.0,0.0,0.0
1093.86,1494.0,0.0,0.0,0.0
1094.3,1498.0,0.0,0.0,0.0
1094.74,1539.0,0.0,0.0,0.0
1095.18,1517.0,0.0,0.0,0.0
1095.62,1495.0,0.0,0.0,0.0
1096.06,1557.0,0.0,0.0,0.0
1096.49,1539.0,0.0,0.0,0.0
1096.93,1538.0,0.0,0.0,0.0
1097.37,1479.0,0.0,0.0,0.0
1097.81,1472.0,0.0,0.0,0.0
